"Cycle 0:#010:XPS Survey"
,Characteristic Energy eV,1.486680e+03,Acquisition Time s,1.000000e-01
Name,,
Position,,
FWHM,,
Area,,
Lineshape,,
K.E.,Counts,,B.E.,CPS
1.366000e+02,3.628150e+03,,1.350080e+03,3.628150e+04
1.376000e+02,3.629340e+03,,1.349080e+03,3.629340e+04
1.386000e+02,3.555520e+03,,1.348080e+03,3.555520e+04
1.396000e+02,3.594770e+03,,1.347080e+03,3.594770e+04
1.406000e+02,3.593360e+03,,1.346080e+03,3.593360e+04
1.416000e+02,3.622000e+03,,1.345080e+03,3.622000e+04
1.426000e+02,3.671130e+03,,1.344080e+03,3.671130e+04
1.436000e+02,3.602650e+03,,1.343080e+03,3.602650e+04
1.446000e+02,3.678900e+03,,1.342080e+03,3.678900e+04
1.456000e+02,3.720950e+03,,1.341080e+03,3.720950e+04
1.466000e+02,3.748480e+03,,1.340080e+03,3.748480e+04
1.476000e+02,3.717400e+03,,1.339080e+03,3.717400e+04
1.486000e+02,3.685080e+03,,1.338080e+03,3.685080e+04
1.496000e+02,3.642680e+03,,1.337080e+03,3.642680e+04
1.506000e+02,3.724520e+03,,1.336080e+03,3.724520e+04
1.516000e+02,3.669620e+03,,1.335080e+03,3.669620e+04
1.526000e+02,3.642020e+03,,1.334080e+03,3.642020e+04
1.536000e+02,3.644450e+03,,1.333080e+03,3.644450e+04
1.546000e+02,3.618220e+03,,1.332080e+03,3.618220e+04
1.556000e+02,3.639700e+03,,1.331080e+03,3.639700e+04
1.566000e+02,3.665170e+03,,1.330080e+03,3.665170e+04
1.576000e+02,3.606820e+03,,1.329080e+03,3.606820e+04
1.586000e+02,3.693160e+03,,1.328080e+03,3.693160e+04
1.596000e+02,3.814340e+03,,1.327080e+03,3.814340e+04
1.606000e+02,3.664900e+03,,1.326080e+03,3.664900e+04
1.616000e+02,3.662980e+03,,1.325080e+03,3.662980e+04
1.626000e+02,3.816190e+03,,1.324080e+03,3.816190e+04
1.636000e+02,3.690390e+03,,1.323080e+03,3.690390e+04
1.646000e+02,3.668430e+03,,1.322080e+03,3.668430e+04
1.656000e+02,3.635410e+03,,1.321080e+03,3.635410e+04
1.666000e+02,3.715940e+03,,1.320080e+03,3.715940e+04
1.676000e+02,3.639450e+03,,1.319080e+03,3.639450e+04
1.686000e+02,3.696440e+03,,1.318080e+03,3.696440e+04
1.696000e+02,3.689050e+03,,1.317080e+03,3.689050e+04
1.706000e+02,3.687930e+03,,1.316080e+03,3.687930e+04
1.716000e+02,3.704610e+03,,1.315080e+03,3.704610e+04
1.726000e+02,3.723950e+03,,1.314080e+03,3.723950e+04
1.736000e+02,3.627680e+03,,1.313080e+03,3.627680e+04
1.746000e+02,3.762350e+03,,1.312080e+03,3.762350e+04
1.756000e+02,3.702190e+03,,1.311080e+03,3.702190e+04
1.766000e+02,3.615450e+03,,1.310080e+03,3.615450e+04
1.776000e+02,3.748910e+03,,1.309080e+03,3.748910e+04
1.786000e+02,3.777680e+03,,1.308080e+03,3.777680e+04
1.796000e+02,3.896300e+03,,1.307080e+03,3.896300e+04
1.806000e+02,3.845260e+03,,1.306080e+03,3.845260e+04
1.816000e+02,3.793310e+03,,1.305080e+03,3.793310e+04
1.826000e+02,3.781110e+03,,1.304080e+03,3.781110e+04
1.836000e+02,3.865650e+03,,1.303080e+03,3.865650e+04
1.846000e+02,3.818590e+03,,1.302080e+03,3.818590e+04
1.856000e+02,3.762930e+03,,1.301080e+03,3.762930e+04
1.866000e+02,3.736780e+03,,1.300080e+03,3.736780e+04
1.876000e+02,3.758600e+03,,1.299080e+03,3.758600e+04
1.886000e+02,3.848970e+03,,1.298080e+03,3.848970e+04
1.896000e+02,3.822890e+03,,1.297080e+03,3.822890e+04
1.906000e+02,3.845280e+03,,1.296080e+03,3.845280e+04
1.916000e+02,3.721270e+03,,1.295080e+03,3.721270e+04
1.926000e+02,3.842300e+03,,1.294080e+03,3.842300e+04
1.936000e+02,3.895470e+03,,1.293080e+03,3.895470e+04
1.946000e+02,3.885280e+03,,1.292080e+03,3.885280e+04
1.956000e+02,3.828710e+03,,1.291080e+03,3.828710e+04
1.966000e+02,3.938560e+03,,1.290080e+03,3.938560e+04
1.976000e+02,3.982540e+03,,1.289080e+03,3.982540e+04
1.986000e+02,3.939530e+03,,1.288080e+03,3.939530e+04
1.996000e+02,3.832420e+03,,1.287080e+03,3.832420e+04
2.006000e+02,3.776960e+03,,1.286080e+03,3.776960e+04
2.016000e+02,3.780430e+03,,1.285080e+03,3.780430e+04
2.026000e+02,3.934070e+03,,1.284080e+03,3.934070e+04
2.036000e+02,3.773720e+03,,1.283080e+03,3.773720e+04
2.046000e+02,3.750660e+03,,1.282080e+03,3.750660e+04
2.056000e+02,3.805210e+03,,1.281080e+03,3.805210e+04
2.066000e+02,3.897270e+03,,1.280080e+03,3.897270e+04
2.076000e+02,3.869470e+03,,1.279080e+03,3.869470e+04
2.086000e+02,3.985080e+03,,1.278080e+03,3.985080e+04
2.096000e+02,4.020600e+03,,1.277080e+03,4.020600e+04
2.106000e+02,3.869370e+03,,1.276080e+03,3.869370e+04
2.116000e+02,3.916900e+03,,1.275080e+03,3.916900e+04
2.126000e+02,3.991540e+03,,1.274080e+03,3.991540e+04
2.136000e+02,4.043790e+03,,1.273080e+03,4.043790e+04
2.146000e+02,4.185070e+03,,1.272080e+03,4.185070e+04
2.156000e+02,4.008240e+03,,1.271080e+03,4.008240e+04
2.166000e+02,4.067390e+03,,1.270080e+03,4.067390e+04
2.176000e+02,3.972580e+03,,1.269080e+03,3.972580e+04
2.186000e+02,4.035830e+03,,1.268080e+03,4.035830e+04
2.196000e+02,4.106390e+03,,1.267080e+03,4.106390e+04
2.206000e+02,4.103970e+03,,1.266080e+03,4.103970e+04
2.216000e+02,4.045810e+03,,1.265080e+03,4.045810e+04
2.226000e+02,4.031070e+03,,1.264080e+03,4.031070e+04
2.236000e+02,3.980700e+03,,1.263080e+03,3.980700e+04
2.246000e+02,3.949390e+03,,1.262080e+03,3.949390e+04
2.256000e+02,3.935360e+03,,1.261080e+03,3.935360e+04
2.266000e+02,4.024190e+03,,1.260080e+03,4.024190e+04
2.276000e+02,4.074760e+03,,1.259080e+03,4.074760e+04
2.286000e+02,4.105040e+03,,1.258080e+03,4.105040e+04
2.296000e+02,4.133240e+03,,1.257080e+03,4.133240e+04
2.306000e+02,4.011170e+03,,1.256080e+03,4.011170e+04
2.316000e+02,4.217480e+03,,1.255080e+03,4.217480e+04
2.326000e+02,4.137990e+03,,1.254080e+03,4.137990e+04
2.336000e+02,4.171640e+03,,1.253080e+03,4.171640e+04
2.346000e+02,4.124750e+03,,1.252080e+03,4.124750e+04
2.356000e+02,4.146400e+03,,1.251080e+03,4.146400e+04
2.366000e+02,4.314360e+03,,1.250080e+03,4.314360e+04
2.376000e+02,4.295500e+03,,1.249080e+03,4.295500e+04
2.386000e+02,4.254280e+03,,1.248080e+03,4.254280e+04
2.396000e+02,4.097080e+03,,1.247080e+03,4.097080e+04
2.406000e+02,4.228420e+03,,1.246080e+03,4.228420e+04
2.416000e+02,4.279060e+03,,1.245080e+03,4.279060e+04
2.426000e+02,4.210880e+03,,1.244080e+03,4.210880e+04
2.436000e+02,4.273040e+03,,1.243080e+03,4.273040e+04
2.446000e+02,4.254240e+03,,1.242080e+03,4.254240e+04
2.456000e+02,4.346720e+03,,1.241080e+03,4.346720e+04
2.466000e+02,4.367030e+03,,1.240080e+03,4.367030e+04
2.476000e+02,4.417940e+03,,1.239080e+03,4.417940e+04
2.486000e+02,4.264430e+03,,1.238080e+03,4.264430e+04
2.496000e+02,4.300200e+03,,1.237080e+03,4.300200e+04
2.506000e+02,4.494630e+03,,1.236080e+03,4.494630e+04
2.516000e+02,4.410180e+03,,1.235080e+03,4.410180e+04
2.526000e+02,4.393870e+03,,1.234080e+03,4.393870e+04
2.536000e+02,4.344080e+03,,1.233080e+03,4.344080e+04
2.546000e+02,4.479690e+03,,1.232080e+03,4.479690e+04
2.556000e+02,4.480140e+03,,1.231080e+03,4.480140e+04
2.566000e+02,4.595860e+03,,1.230080e+03,4.595860e+04
2.576000e+02,4.530600e+03,,1.229080e+03,4.530600e+04
2.586000e+02,4.557780e+03,,1.228080e+03,4.557780e+04
2.596000e+02,4.588030e+03,,1.227080e+03,4.588030e+04
2.606000e+02,4.606520e+03,,1.226080e+03,4.606520e+04
2.616000e+02,4.568370e+03,,1.225080e+03,4.568370e+04
2.626000e+02,4.412120e+03,,1.224080e+03,4.412120e+04
2.636000e+02,4.509740e+03,,1.223080e+03,4.509740e+04
2.646000e+02,4.481100e+03,,1.222080e+03,4.481100e+04
2.656000e+02,4.413940e+03,,1.221080e+03,4.413940e+04
2.666000e+02,4.281020e+03,,1.220080e+03,4.281020e+04
2.676000e+02,4.343150e+03,,1.219080e+03,4.343150e+04
2.686000e+02,4.206930e+03,,1.218080e+03,4.206930e+04
2.696000e+02,4.305870e+03,,1.217080e+03,4.305870e+04
2.706000e+02,4.350530e+03,,1.216080e+03,4.350530e+04
2.716000e+02,4.311120e+03,,1.215080e+03,4.311120e+04
2.726000e+02,4.241100e+03,,1.214080e+03,4.241100e+04
2.736000e+02,4.160190e+03,,1.213080e+03,4.160190e+04
2.746000e+02,4.362290e+03,,1.212080e+03,4.362290e+04
2.756000e+02,4.189600e+03,,1.211080e+03,4.189600e+04
2.766000e+02,4.364530e+03,,1.210080e+03,4.364530e+04
2.776000e+02,4.224120e+03,,1.209080e+03,4.224120e+04
2.786000e+02,4.211930e+03,,1.208080e+03,4.211930e+04
2.796000e+02,4.316370e+03,,1.207080e+03,4.316370e+04
2.806000e+02,4.238830e+03,,1.206080e+03,4.238830e+04
2.816000e+02,4.272850e+03,,1.205080e+03,4.272850e+04
2.826000e+02,4.322990e+03,,1.204080e+03,4.322990e+04
2.836000e+02,4.377180e+03,,1.203080e+03,4.377180e+04
2.846000e+02,4.268630e+03,,1.202080e+03,4.268630e+04
2.856000e+02,4.340860e+03,,1.201080e+03,4.340860e+04
2.866000e+02,4.309930e+03,,1.200080e+03,4.309930e+04
2.876000e+02,4.282470e+03,,1.199080e+03,4.282470e+04
2.886000e+02,4.220760e+03,,1.198080e+03,4.220760e+04
2.896000e+02,4.238190e+03,,1.197080e+03,4.238190e+04
2.906000e+02,4.286770e+03,,1.196080e+03,4.286770e+04
2.916000e+02,4.305080e+03,,1.195080e+03,4.305080e+04
2.926000e+02,4.289170e+03,,1.194080e+03,4.289170e+04
2.936000e+02,4.284030e+03,,1.193080e+03,4.284030e+04
2.946000e+02,4.482760e+03,,1.192080e+03,4.482760e+04
2.956000e+02,4.306340e+03,,1.191080e+03,4.306340e+04
2.966000e+02,4.513760e+03,,1.190080e+03,4.513760e+04
2.976000e+02,4.377280e+03,,1.189080e+03,4.377280e+04
2.986000e+02,4.379510e+03,,1.188080e+03,4.379510e+04
2.996000e+02,4.294940e+03,,1.187080e+03,4.294940e+04
3.006000e+02,4.505220e+03,,1.186080e+03,4.505220e+04
3.016000e+02,4.389120e+03,,1.185080e+03,4.389120e+04
3.026000e+02,4.562320e+03,,1.184080e+03,4.562320e+04
3.036000e+02,4.522200e+03,,1.183080e+03,4.522200e+04
3.046000e+02,4.443810e+03,,1.182080e+03,4.443810e+04
3.056000e+02,4.400030e+03,,1.181080e+03,4.400030e+04
3.066000e+02,4.477420e+03,,1.180080e+03,4.477420e+04
3.076000e+02,4.573610e+03,,1.179080e+03,4.573610e+04
3.086000e+02,4.444400e+03,,1.178080e+03,4.444400e+04
3.096000e+02,4.535600e+03,,1.177080e+03,4.535600e+04
3.106000e+02,4.648480e+03,,1.176080e+03,4.648480e+04
3.116000e+02,4.470870e+03,,1.175080e+03,4.470870e+04
3.126000e+02,4.613010e+03,,1.174080e+03,4.613010e+04
3.136000e+02,4.519760e+03,,1.173080e+03,4.519760e+04
3.146000e+02,4.493090e+03,,1.172080e+03,4.493090e+04
3.156000e+02,4.564040e+03,,1.171080e+03,4.564040e+04
3.166000e+02,4.538170e+03,,1.170080e+03,4.538170e+04
3.176000e+02,4.643880e+03,,1.169080e+03,4.643880e+04
3.186000e+02,4.654650e+03,,1.168080e+03,4.654650e+04
3.196000e+02,4.553710e+03,,1.167080e+03,4.553710e+04
3.206000e+02,4.600190e+03,,1.166080e+03,4.600190e+04
3.216000e+02,4.630890e+03,,1.165080e+03,4.630890e+04
3.226000e+02,4.647270e+03,,1.164080e+03,4.647270e+04
3.236000e+02,4.516170e+03,,1.163080e+03,4.516170e+04
3.246000e+02,4.597410e+03,,1.162080e+03,4.597410e+04
3.256000e+02,4.636680e+03,,1.161080e+03,4.636680e+04
3.266000e+02,4.651730e+03,,1.160080e+03,4.651730e+04
3.276000e+02,4.677090e+03,,1.159080e+03,4.677090e+04
3.286000e+02,4.724470e+03,,1.158080e+03,4.724470e+04
3.296000e+02,4.706020e+03,,1.157080e+03,4.706020e+04
3.306000e+02,4.634160e+03,,1.156080e+03,4.634160e+04
3.316000e+02,4.761330e+03,,1.155080e+03,4.761330e+04
3.326000e+02,4.616570e+03,,1.154080e+03,4.616570e+04
3.336000e+02,4.614590e+03,,1.153080e+03,4.614590e+04
3.346000e+02,4.875400e+03,,1.152080e+03,4.875400e+04
3.356000e+02,4.705840e+03,,1.151080e+03,4.705840e+04
3.366000e+02,4.728590e+03,,1.150080e+03,4.728590e+04
3.376000e+02,4.784990e+03,,1.149080e+03,4.784990e+04
3.386000e+02,4.746230e+03,,1.148080e+03,4.746230e+04
3.396000e+02,4.764700e+03,,1.147080e+03,4.764700e+04
3.406000e+02,4.788450e+03,,1.146080e+03,4.788450e+04
3.416000e+02,4.744780e+03,,1.145080e+03,4.744780e+04
3.426000e+02,4.729360e+03,,1.144080e+03,4.729360e+04
3.436000e+02,4.760470e+03,,1.143080e+03,4.760470e+04
3.446000e+02,4.810960e+03,,1.142080e+03,4.810960e+04
3.456000e+02,4.879740e+03,,1.141080e+03,4.879740e+04
3.466000e+02,4.791250e+03,,1.140080e+03,4.791250e+04
3.476000e+02,4.784380e+03,,1.139080e+03,4.784380e+04
3.486000e+02,4.739390e+03,,1.138080e+03,4.739390e+04
3.496000e+02,4.850550e+03,,1.137080e+03,4.850550e+04
3.506000e+02,4.757540e+03,,1.136080e+03,4.757540e+04
3.516000e+02,4.871660e+03,,1.135080e+03,4.871660e+04
3.526000e+02,4.857690e+03,,1.134080e+03,4.857690e+04
3.536000e+02,4.926780e+03,,1.133080e+03,4.926780e+04
3.546000e+02,4.820360e+03,,1.132080e+03,4.820360e+04
3.556000e+02,4.953140e+03,,1.131080e+03,4.953140e+04
3.566000e+02,4.910930e+03,,1.130080e+03,4.910930e+04
3.576000e+02,4.959190e+03,,1.129080e+03,4.959190e+04
3.586000e+02,4.956600e+03,,1.128080e+03,4.956600e+04
3.596000e+02,5.001140e+03,,1.127080e+03,5.001140e+04
3.606000e+02,4.927410e+03,,1.126080e+03,4.927410e+04
3.616000e+02,5.113860e+03,,1.125080e+03,5.113860e+04
3.626000e+02,5.010030e+03,,1.124080e+03,5.010030e+04
3.636000e+02,5.000000e+03,,1.123080e+03,5.000000e+04
3.646000e+02,4.907520e+03,,1.122080e+03,4.907520e+04
3.656000e+02,5.099700e+03,,1.121080e+03,5.099700e+04
3.666000e+02,4.984070e+03,,1.120080e+03,4.984070e+04
3.676000e+02,4.976630e+03,,1.119080e+03,4.976630e+04
3.686000e+02,5.008260e+03,,1.118080e+03,5.008260e+04
3.696000e+02,5.030010e+03,,1.117080e+03,5.030010e+04
3.706000e+02,5.003240e+03,,1.116080e+03,5.003240e+04
3.716000e+02,4.992970e+03,,1.115080e+03,4.992970e+04
3.726000e+02,4.994180e+03,,1.114080e+03,4.994180e+04
3.736000e+02,5.013840e+03,,1.113080e+03,5.013840e+04
3.746000e+02,5.109280e+03,,1.112080e+03,5.109280e+04
3.756000e+02,5.005000e+03,,1.111080e+03,5.005000e+04
3.766000e+02,5.021940e+03,,1.110080e+03,5.021940e+04
3.776000e+02,5.169710e+03,,1.109080e+03,5.169710e+04
3.786000e+02,5.082000e+03,,1.108080e+03,5.082000e+04
3.796000e+02,5.008080e+03,,1.107080e+03,5.008080e+04
3.806000e+02,5.074620e+03,,1.106080e+03,5.074620e+04
3.816000e+02,5.253120e+03,,1.105080e+03,5.253120e+04
3.826000e+02,5.111480e+03,,1.104080e+03,5.111480e+04
3.836000e+02,5.131470e+03,,1.103080e+03,5.131470e+04
3.846000e+02,5.201900e+03,,1.102080e+03,5.201900e+04
3.856000e+02,5.243400e+03,,1.101080e+03,5.243400e+04
3.866000e+02,5.123420e+03,,1.100080e+03,5.123420e+04
3.876000e+02,5.077920e+03,,1.099080e+03,5.077920e+04
3.886000e+02,5.152040e+03,,1.098080e+03,5.152040e+04
3.896000e+02,5.226800e+03,,1.097080e+03,5.226800e+04
3.906000e+02,5.320380e+03,,1.096080e+03,5.320380e+04
3.916000e+02,5.325380e+03,,1.095080e+03,5.325380e+04
3.926000e+02,5.313850e+03,,1.094080e+03,5.313850e+04
3.936000e+02,5.346340e+03,,1.093080e+03,5.346340e+04
3.946000e+02,5.335040e+03,,1.092080e+03,5.335040e+04
3.956000e+02,5.307880e+03,,1.091080e+03,5.307880e+04
3.966000e+02,5.366630e+03,,1.090080e+03,5.366630e+04
3.976000e+02,5.364880e+03,,1.089080e+03,5.364880e+04
3.986000e+02,5.391080e+03,,1.088080e+03,5.391080e+04
3.996000e+02,5.380390e+03,,1.087080e+03,5.380390e+04
4.006000e+02,5.281020e+03,,1.086080e+03,5.281020e+04
4.016000e+02,5.512840e+03,,1.085080e+03,5.512840e+04
4.026000e+02,5.387740e+03,,1.084080e+03,5.387740e+04
4.036000e+02,5.437950e+03,,1.083080e+03,5.437950e+04
4.046000e+02,5.477180e+03,,1.082080e+03,5.477180e+04
4.056000e+02,5.441560e+03,,1.081080e+03,5.441560e+04
4.066000e+02,5.467740e+03,,1.080080e+03,5.467740e+04
4.076000e+02,5.452460e+03,,1.079080e+03,5.452460e+04
4.086000e+02,5.484830e+03,,1.078080e+03,5.484830e+04
4.096000e+02,5.483860e+03,,1.077080e+03,5.483860e+04
4.106000e+02,5.494930e+03,,1.076080e+03,5.494930e+04
4.116000e+02,5.544440e+03,,1.075080e+03,5.544440e+04
4.126000e+02,5.575140e+03,,1.074080e+03,5.575140e+04
4.136000e+02,5.461300e+03,,1.073080e+03,5.461300e+04
4.146000e+02,5.449350e+03,,1.072080e+03,5.449350e+04
4.156000e+02,5.610880e+03,,1.071080e+03,5.610880e+04
4.166000e+02,5.691370e+03,,1.070080e+03,5.691370e+04
4.176000e+02,5.495110e+03,,1.069080e+03,5.495110e+04
4.186000e+02,5.657420e+03,,1.068080e+03,5.657420e+04
4.196000e+02,5.620180e+03,,1.067080e+03,5.620180e+04
4.206000e+02,5.566440e+03,,1.066080e+03,5.566440e+04
4.216000e+02,5.607790e+03,,1.065080e+03,5.607790e+04
4.226000e+02,5.700770e+03,,1.064080e+03,5.700770e+04
4.236000e+02,5.586510e+03,,1.063080e+03,5.586510e+04
4.246000e+02,5.737820e+03,,1.062080e+03,5.737820e+04
4.256000e+02,5.729420e+03,,1.061080e+03,5.729420e+04
4.266000e+02,5.615950e+03,,1.060080e+03,5.615950e+04
4.276000e+02,5.616660e+03,,1.059080e+03,5.616660e+04
4.286000e+02,5.719950e+03,,1.058080e+03,5.719950e+04
4.296000e+02,5.842470e+03,,1.057080e+03,5.842470e+04
4.306000e+02,5.757860e+03,,1.056080e+03,5.757860e+04
4.316000e+02,5.607830e+03,,1.055080e+03,5.607830e+04
4.326000e+02,5.894840e+03,,1.054080e+03,5.894840e+04
4.336000e+02,5.693350e+03,,1.053080e+03,5.693350e+04
4.346000e+02,5.918940e+03,,1.052080e+03,5.918940e+04
4.356000e+02,5.756110e+03,,1.051080e+03,5.756110e+04
4.366000e+02,5.825130e+03,,1.050080e+03,5.825130e+04
4.376000e+02,5.854090e+03,,1.049080e+03,5.854090e+04
4.386000e+02,5.880860e+03,,1.048080e+03,5.880860e+04
4.396000e+02,5.912440e+03,,1.047080e+03,5.912440e+04
4.406000e+02,5.915930e+03,,1.046080e+03,5.915930e+04
4.416000e+02,5.912840e+03,,1.045080e+03,5.912840e+04
4.426000e+02,5.943550e+03,,1.044080e+03,5.943550e+04
4.436000e+02,5.934270e+03,,1.043080e+03,5.934270e+04
4.446000e+02,5.851200e+03,,1.042080e+03,5.851200e+04
4.456000e+02,6.124960e+03,,1.041080e+03,6.124960e+04
4.466000e+02,6.019430e+03,,1.040080e+03,6.019430e+04
4.476000e+02,5.977950e+03,,1.039080e+03,5.977950e+04
4.486000e+02,6.145630e+03,,1.038080e+03,6.145630e+04
4.496000e+02,5.942940e+03,,1.037080e+03,5.942940e+04
4.506000e+02,6.006830e+03,,1.036080e+03,6.006830e+04
4.516000e+02,6.039440e+03,,1.035080e+03,6.039440e+04
4.526000e+02,6.006080e+03,,1.034080e+03,6.006080e+04
4.536000e+02,6.073860e+03,,1.033080e+03,6.073860e+04
4.546000e+02,6.001730e+03,,1.032080e+03,6.001730e+04
4.556000e+02,6.149970e+03,,1.031080e+03,6.149970e+04
4.566000e+02,6.306030e+03,,1.030080e+03,6.306030e+04
4.576000e+02,6.186130e+03,,1.029080e+03,6.186130e+04
4.586000e+02,6.197820e+03,,1.028080e+03,6.197820e+04
4.596000e+02,6.186600e+03,,1.027080e+03,6.186600e+04
4.606000e+02,6.392620e+03,,1.026080e+03,6.392620e+04
4.616000e+02,6.334550e+03,,1.025080e+03,6.334550e+04
4.626000e+02,6.402290e+03,,1.024080e+03,6.402290e+04
4.636000e+02,6.389520e+03,,1.023080e+03,6.389520e+04
4.646000e+02,6.320250e+03,,1.022080e+03,6.320250e+04
4.656000e+02,6.361760e+03,,1.021080e+03,6.361760e+04
4.666000e+02,6.426670e+03,,1.020080e+03,6.426670e+04
4.676000e+02,6.532870e+03,,1.019080e+03,6.532870e+04
4.686000e+02,6.470330e+03,,1.018080e+03,6.470330e+04
4.696000e+02,6.523990e+03,,1.017080e+03,6.523990e+04
4.706000e+02,6.382480e+03,,1.016080e+03,6.382480e+04
4.716000e+02,6.403210e+03,,1.015080e+03,6.403210e+04
4.726000e+02,6.441660e+03,,1.014080e+03,6.441660e+04
4.736000e+02,6.365110e+03,,1.013080e+03,6.365110e+04
4.746000e+02,6.436570e+03,,1.012080e+03,6.436570e+04
4.756000e+02,6.320500e+03,,1.011080e+03,6.320500e+04
4.766000e+02,6.379990e+03,,1.010080e+03,6.379990e+04
4.776000e+02,6.528950e+03,,1.009080e+03,6.528950e+04
4.786000e+02,6.659470e+03,,1.008080e+03,6.659470e+04
4.796000e+02,6.883700e+03,,1.007080e+03,6.883700e+04
4.806000e+02,6.814940e+03,,1.006080e+03,6.814940e+04
4.816000e+02,7.129760e+03,,1.005080e+03,7.129760e+04
4.826000e+02,6.990670e+03,,1.004080e+03,6.990670e+04
4.836000e+02,7.223790e+03,,1.003080e+03,7.223790e+04
4.846000e+02,7.283510e+03,,1.002080e+03,7.283510e+04
4.856000e+02,7.196180e+03,,1.001080e+03,7.196180e+04
4.866000e+02,7.108430e+03,,1.000080e+03,7.108430e+04
4.876000e+02,6.819580e+03,,9.990800e+02,6.819580e+04
4.886000e+02,6.664410e+03,,9.980800e+02,6.664410e+04
4.896000e+02,6.489890e+03,,9.970800e+02,6.489890e+04
4.906000e+02,6.405700e+03,,9.960800e+02,6.405700e+04
4.916000e+02,6.294790e+03,,9.950800e+02,6.294790e+04
4.926000e+02,6.219000e+03,,9.940800e+02,6.219000e+04
4.936000e+02,6.023780e+03,,9.930800e+02,6.023780e+04
4.946000e+02,5.851000e+03,,9.920800e+02,5.851000e+04
4.956000e+02,5.947770e+03,,9.910800e+02,5.947770e+04
4.966000e+02,6.079420e+03,,9.900800e+02,6.079420e+04
4.976000e+02,6.059410e+03,,9.890800e+02,6.059410e+04
4.986000e+02,6.039020e+03,,9.880800e+02,6.039020e+04
4.996000e+02,6.312220e+03,,9.870800e+02,6.312220e+04
5.006000e+02,6.627090e+03,,9.860800e+02,6.627090e+04
5.016000e+02,7.220010e+03,,9.850800e+02,7.220010e+04
5.026000e+02,7.636420e+03,,9.840800e+02,7.636420e+04
5.036000e+02,7.984060e+03,,9.830800e+02,7.984060e+04
5.046000e+02,8.549560e+03,,9.820800e+02,8.549560e+04
5.056000e+02,8.942090e+03,,9.810800e+02,8.942090e+04
5.066000e+02,9.136890e+03,,9.800800e+02,9.136890e+04
5.076000e+02,8.228930e+03,,9.790800e+02,8.228930e+04
5.086000e+02,7.417100e+03,,9.780800e+02,7.417100e+04
5.096000e+02,6.539860e+03,,9.770800e+02,6.539860e+04
5.106000e+02,6.156200e+03,,9.760800e+02,6.156200e+04
5.116000e+02,5.645470e+03,,9.750800e+02,5.645470e+04
5.126000e+02,5.249210e+03,,9.740800e+02,5.249210e+04
5.136000e+02,5.045380e+03,,9.730800e+02,5.045380e+04
5.146000e+02,4.692030e+03,,9.720800e+02,4.692030e+04
5.156000e+02,4.396850e+03,,9.710800e+02,4.396850e+04
5.166000e+02,4.286990e+03,,9.700800e+02,4.286990e+04
5.176000e+02,3.968020e+03,,9.690800e+02,3.968020e+04
5.186000e+02,3.752480e+03,,9.680800e+02,3.752480e+04
5.196000e+02,3.577220e+03,,9.670800e+02,3.577220e+04
5.206000e+02,3.633570e+03,,9.660800e+02,3.633570e+04
5.216000e+02,3.572920e+03,,9.650800e+02,3.572920e+04
5.226000e+02,3.453530e+03,,9.640800e+02,3.453530e+04
5.236000e+02,3.481790e+03,,9.630800e+02,3.481790e+04
5.246000e+02,3.559430e+03,,9.620800e+02,3.559430e+04
5.256000e+02,3.534470e+03,,9.610800e+02,3.534470e+04
5.266000e+02,3.587650e+03,,9.600800e+02,3.587650e+04
5.276000e+02,3.533750e+03,,9.590800e+02,3.533750e+04
5.286000e+02,3.486010e+03,,9.580800e+02,3.486010e+04
5.296000e+02,3.442870e+03,,9.570800e+02,3.442870e+04
5.306000e+02,3.495130e+03,,9.560800e+02,3.495130e+04
5.316000e+02,3.590030e+03,,9.550800e+02,3.590030e+04
5.326000e+02,3.503400e+03,,9.540800e+02,3.503400e+04
5.336000e+02,3.616410e+03,,9.530800e+02,3.616410e+04
5.346000e+02,3.540920e+03,,9.520800e+02,3.540920e+04
5.356000e+02,3.492200e+03,,9.510800e+02,3.492200e+04
5.366000e+02,3.643160e+03,,9.500800e+02,3.643160e+04
5.376000e+02,3.563090e+03,,9.490800e+02,3.563090e+04
5.386000e+02,3.495690e+03,,9.480800e+02,3.495690e+04
5.396000e+02,3.585130e+03,,9.470800e+02,3.585130e+04
5.406000e+02,3.494060e+03,,9.460800e+02,3.494060e+04
5.416000e+02,3.557190e+03,,9.450800e+02,3.557190e+04
5.426000e+02,3.466690e+03,,9.440800e+02,3.466690e+04
5.436000e+02,3.494800e+03,,9.430800e+02,3.494800e+04
5.446000e+02,3.487050e+03,,9.420800e+02,3.487050e+04
5.456000e+02,3.559810e+03,,9.410800e+02,3.559810e+04
5.466000e+02,3.557120e+03,,9.400800e+02,3.557120e+04
5.476000e+02,3.633090e+03,,9.390800e+02,3.633090e+04
5.486000e+02,3.634840e+03,,9.380800e+02,3.634840e+04
5.496000e+02,3.602560e+03,,9.370800e+02,3.602560e+04
5.506000e+02,3.662040e+03,,9.360800e+02,3.662040e+04
5.516000e+02,3.597960e+03,,9.350800e+02,3.597960e+04
5.526000e+02,3.530460e+03,,9.340800e+02,3.530460e+04
5.536000e+02,3.660360e+03,,9.330800e+02,3.660360e+04
5.546000e+02,3.610720e+03,,9.320800e+02,3.610720e+04
5.556000e+02,3.562640e+03,,9.310800e+02,3.562640e+04
5.566000e+02,3.575520e+03,,9.300800e+02,3.575520e+04
5.576000e+02,3.595380e+03,,9.290800e+02,3.595380e+04
5.586000e+02,3.599610e+03,,9.280800e+02,3.599610e+04
5.596000e+02,3.685590e+03,,9.270800e+02,3.685590e+04
5.606000e+02,3.613430e+03,,9.260800e+02,3.613430e+04
5.616000e+02,3.534980e+03,,9.250800e+02,3.534980e+04
5.626000e+02,3.736170e+03,,9.240800e+02,3.736170e+04
5.636000e+02,3.620490e+03,,9.230800e+02,3.620490e+04
5.646000e+02,3.752100e+03,,9.220800e+02,3.752100e+04
5.656000e+02,3.579610e+03,,9.210800e+02,3.579610e+04
5.666000e+02,3.690910e+03,,9.200800e+02,3.690910e+04
5.676000e+02,3.724990e+03,,9.190800e+02,3.724990e+04
5.686000e+02,3.742290e+03,,9.180800e+02,3.742290e+04
5.696000e+02,3.728280e+03,,9.170800e+02,3.728280e+04
5.706000e+02,3.671150e+03,,9.160800e+02,3.671150e+04
5.716000e+02,3.660680e+03,,9.150800e+02,3.660680e+04
5.726000e+02,3.736480e+03,,9.140800e+02,3.736480e+04
5.736000e+02,3.673700e+03,,9.130800e+02,3.673700e+04
5.746000e+02,3.695270e+03,,9.120800e+02,3.695270e+04
5.756000e+02,3.744260e+03,,9.110800e+02,3.744260e+04
5.766000e+02,3.652830e+03,,9.100800e+02,3.652830e+04
5.776000e+02,3.661900e+03,,9.090800e+02,3.661900e+04
5.786000e+02,3.623380e+03,,9.080800e+02,3.623380e+04
5.796000e+02,3.759230e+03,,9.070800e+02,3.759230e+04
5.806000e+02,3.729980e+03,,9.060800e+02,3.729980e+04
5.816000e+02,3.632480e+03,,9.050800e+02,3.632480e+04
5.826000e+02,3.667820e+03,,9.040800e+02,3.667820e+04
5.836000e+02,3.850640e+03,,9.030800e+02,3.850640e+04
5.846000e+02,3.711830e+03,,9.020800e+02,3.711830e+04
5.856000e+02,3.738700e+03,,9.010800e+02,3.738700e+04
5.866000e+02,3.791330e+03,,9.000800e+02,3.791330e+04
5.876000e+02,3.761310e+03,,8.990800e+02,3.761310e+04
5.886000e+02,3.675900e+03,,8.980800e+02,3.675900e+04
5.896000e+02,3.837510e+03,,8.970800e+02,3.837510e+04
5.906000e+02,3.709100e+03,,8.960800e+02,3.709100e+04
5.916000e+02,3.762800e+03,,8.950800e+02,3.762800e+04
5.926000e+02,3.660200e+03,,8.940800e+02,3.660200e+04
5.936000e+02,3.709920e+03,,8.930800e+02,3.709920e+04
5.946000e+02,3.721350e+03,,8.920800e+02,3.721350e+04
5.956000e+02,3.870640e+03,,8.910800e+02,3.870640e+04
5.966000e+02,3.864030e+03,,8.900800e+02,3.864030e+04
5.976000e+02,3.797570e+03,,8.890800e+02,3.797570e+04
5.986000e+02,3.729800e+03,,8.880800e+02,3.729800e+04
5.996000e+02,3.870610e+03,,8.870800e+02,3.870610e+04
6.006000e+02,3.766020e+03,,8.860800e+02,3.766020e+04
6.016000e+02,3.774230e+03,,8.850800e+02,3.774230e+04
6.026000e+02,3.864420e+03,,8.840800e+02,3.864420e+04
6.036000e+02,3.851160e+03,,8.830800e+02,3.851160e+04
6.046000e+02,3.801500e+03,,8.820800e+02,3.801500e+04
6.056000e+02,3.817740e+03,,8.810800e+02,3.817740e+04
6.066000e+02,3.869610e+03,,8.800800e+02,3.869610e+04
6.076000e+02,3.820460e+03,,8.790800e+02,3.820460e+04
6.086000e+02,3.861690e+03,,8.780800e+02,3.861690e+04
6.096000e+02,3.795900e+03,,8.770800e+02,3.795900e+04
6.106000e+02,3.856550e+03,,8.760800e+02,3.856550e+04
6.116000e+02,3.898670e+03,,8.750800e+02,3.898670e+04
6.126000e+02,3.901970e+03,,8.740800e+02,3.901970e+04
6.136000e+02,3.813330e+03,,8.730800e+02,3.813330e+04
6.146000e+02,3.903270e+03,,8.720800e+02,3.903270e+04
6.156000e+02,3.885540e+03,,8.710800e+02,3.885540e+04
6.166000e+02,3.879360e+03,,8.700800e+02,3.879360e+04
6.176000e+02,3.840210e+03,,8.690800e+02,3.840210e+04
6.186000e+02,3.890870e+03,,8.680800e+02,3.890870e+04
6.196000e+02,3.901800e+03,,8.670800e+02,3.901800e+04
6.206000e+02,3.875410e+03,,8.660800e+02,3.875410e+04
6.216000e+02,3.867380e+03,,8.650800e+02,3.867380e+04
6.226000e+02,3.910960e+03,,8.640800e+02,3.910960e+04
6.236000e+02,3.895110e+03,,8.630800e+02,3.895110e+04
6.246000e+02,3.974990e+03,,8.620800e+02,3.974990e+04
6.256000e+02,3.890460e+03,,8.610800e+02,3.890460e+04
6.266000e+02,3.908260e+03,,8.600800e+02,3.908260e+04
6.276000e+02,3.995570e+03,,8.590800e+02,3.995570e+04
6.286000e+02,3.968880e+03,,8.580800e+02,3.968880e+04
6.296000e+02,4.055900e+03,,8.570800e+02,4.055900e+04
6.306000e+02,3.903260e+03,,8.560800e+02,3.903260e+04
6.316000e+02,3.868670e+03,,8.550800e+02,3.868670e+04
6.326000e+02,3.908000e+03,,8.540800e+02,3.908000e+04
6.336000e+02,4.029640e+03,,8.530800e+02,4.029640e+04
6.346000e+02,3.935460e+03,,8.520800e+02,3.935460e+04
6.356000e+02,4.060370e+03,,8.510800e+02,4.060370e+04
6.366000e+02,4.108320e+03,,8.500800e+02,4.108320e+04
6.376000e+02,3.912000e+03,,8.490800e+02,3.912000e+04
6.386000e+02,4.052000e+03,,8.480800e+02,4.052000e+04
6.396000e+02,4.006950e+03,,8.470800e+02,4.006950e+04
6.406000e+02,3.933580e+03,,8.460800e+02,3.933580e+04
6.416000e+02,4.045260e+03,,8.450800e+02,4.045260e+04
6.426000e+02,4.047600e+03,,8.440800e+02,4.047600e+04
6.436000e+02,3.941980e+03,,8.430800e+02,3.941980e+04
6.446000e+02,3.995960e+03,,8.420800e+02,3.995960e+04
6.456000e+02,4.015630e+03,,8.410800e+02,4.015630e+04
6.466000e+02,4.079490e+03,,8.400800e+02,4.079490e+04
6.476000e+02,3.873750e+03,,8.390800e+02,3.873750e+04
6.486000e+02,4.112800e+03,,8.380800e+02,4.112800e+04
6.496000e+02,4.019060e+03,,8.370800e+02,4.019060e+04
6.506000e+02,4.016930e+03,,8.360800e+02,4.016930e+04
6.516000e+02,4.004660e+03,,8.350800e+02,4.004660e+04
6.526000e+02,3.988820e+03,,8.340800e+02,3.988820e+04
6.536000e+02,4.031060e+03,,8.330800e+02,4.031060e+04
6.546000e+02,4.129140e+03,,8.320800e+02,4.129140e+04
6.556000e+02,4.065890e+03,,8.310800e+02,4.065890e+04
6.566000e+02,3.994660e+03,,8.300800e+02,3.994660e+04
6.576000e+02,4.099210e+03,,8.290800e+02,4.099210e+04
6.586000e+02,3.970600e+03,,8.280800e+02,3.970600e+04
6.596000e+02,4.145910e+03,,8.270800e+02,4.145910e+04
6.606000e+02,4.018380e+03,,8.260800e+02,4.018380e+04
6.616000e+02,4.104960e+03,,8.250800e+02,4.104960e+04
6.626000e+02,4.058880e+03,,8.240800e+02,4.058880e+04
6.636000e+02,4.116680e+03,,8.230800e+02,4.116680e+04
6.646000e+02,4.140200e+03,,8.220800e+02,4.140200e+04
6.656000e+02,4.166970e+03,,8.210800e+02,4.166970e+04
6.666000e+02,4.143310e+03,,8.200800e+02,4.143310e+04
6.676000e+02,4.099690e+03,,8.190800e+02,4.099690e+04
6.686000e+02,4.152920e+03,,8.180800e+02,4.152920e+04
6.696000e+02,4.141530e+03,,8.170800e+02,4.141530e+04
6.706000e+02,4.179530e+03,,8.160800e+02,4.179530e+04
6.716000e+02,4.156090e+03,,8.150800e+02,4.156090e+04
6.726000e+02,4.099950e+03,,8.140800e+02,4.099950e+04
6.736000e+02,4.063380e+03,,8.130800e+02,4.063380e+04
6.746000e+02,4.055520e+03,,8.120800e+02,4.055520e+04
6.756000e+02,4.096010e+03,,8.110800e+02,4.096010e+04
6.766000e+02,4.104130e+03,,8.100800e+02,4.104130e+04
6.776000e+02,4.295540e+03,,8.090800e+02,4.295540e+04
6.786000e+02,4.179250e+03,,8.080800e+02,4.179250e+04
6.796000e+02,4.233960e+03,,8.070800e+02,4.233960e+04
6.806000e+02,4.174610e+03,,8.060800e+02,4.174610e+04
6.816000e+02,4.077390e+03,,8.050800e+02,4.077390e+04
6.826000e+02,4.204590e+03,,8.040800e+02,4.204590e+04
6.836000e+02,4.117230e+03,,8.030800e+02,4.117230e+04
6.846000e+02,4.215390e+03,,8.020800e+02,4.215390e+04
6.856000e+02,4.209980e+03,,8.010800e+02,4.209980e+04
6.866000e+02,4.169940e+03,,8.000800e+02,4.169940e+04
6.876000e+02,4.238090e+03,,7.990800e+02,4.238090e+04
6.886000e+02,4.256190e+03,,7.980800e+02,4.256190e+04
6.896000e+02,4.175170e+03,,7.970800e+02,4.175170e+04
6.906000e+02,4.255310e+03,,7.960800e+02,4.255310e+04
6.916000e+02,4.268880e+03,,7.950800e+02,4.268880e+04
6.926000e+02,4.332400e+03,,7.940800e+02,4.332400e+04
6.936000e+02,4.333340e+03,,7.930800e+02,4.333340e+04
6.946000e+02,4.284420e+03,,7.920800e+02,4.284420e+04
6.956000e+02,4.249710e+03,,7.910800e+02,4.249710e+04
6.966000e+02,4.256780e+03,,7.900800e+02,4.256780e+04
6.976000e+02,4.251700e+03,,7.890800e+02,4.251700e+04
6.986000e+02,4.323870e+03,,7.880800e+02,4.323870e+04
6.996000e+02,4.132830e+03,,7.870800e+02,4.132830e+04
7.006000e+02,4.329200e+03,,7.860800e+02,4.329200e+04
7.016000e+02,4.326080e+03,,7.850800e+02,4.326080e+04
7.026000e+02,4.311610e+03,,7.840800e+02,4.311610e+04
7.036000e+02,4.320590e+03,,7.830800e+02,4.320590e+04
7.046000e+02,4.396510e+03,,7.820800e+02,4.396510e+04
7.056000e+02,4.494520e+03,,7.810800e+02,4.494520e+04
7.066000e+02,4.347120e+03,,7.800800e+02,4.347120e+04
7.076000e+02,4.276320e+03,,7.790800e+02,4.276320e+04
7.086000e+02,4.478460e+03,,7.780800e+02,4.478460e+04
7.096000e+02,4.390460e+03,,7.770800e+02,4.390460e+04
7.106000e+02,4.313180e+03,,7.760800e+02,4.313180e+04
7.116000e+02,4.319530e+03,,7.750800e+02,4.319530e+04
7.126000e+02,4.379820e+03,,7.740800e+02,4.379820e+04
7.136000e+02,4.371630e+03,,7.730800e+02,4.371630e+04
7.146000e+02,4.323180e+03,,7.720800e+02,4.323180e+04
7.156000e+02,4.411420e+03,,7.710800e+02,4.411420e+04
7.166000e+02,4.309170e+03,,7.700800e+02,4.309170e+04
7.176000e+02,4.319290e+03,,7.690800e+02,4.319290e+04
7.186000e+02,4.376510e+03,,7.680800e+02,4.376510e+04
7.196000e+02,4.416680e+03,,7.670800e+02,4.416680e+04
7.206000e+02,4.326270e+03,,7.660800e+02,4.326270e+04
7.216000e+02,4.393890e+03,,7.650800e+02,4.393890e+04
7.226000e+02,4.345030e+03,,7.640800e+02,4.345030e+04
7.236000e+02,4.421000e+03,,7.630800e+02,4.421000e+04
7.246000e+02,4.429880e+03,,7.620800e+02,4.429880e+04
7.256000e+02,4.537070e+03,,7.610800e+02,4.537070e+04
7.266000e+02,4.444970e+03,,7.600800e+02,4.444970e+04
7.276000e+02,4.515700e+03,,7.590800e+02,4.515700e+04
7.286000e+02,4.401370e+03,,7.580800e+02,4.401370e+04
7.296000e+02,4.398980e+03,,7.570800e+02,4.398980e+04
7.306000e+02,4.413480e+03,,7.560800e+02,4.413480e+04
7.316000e+02,4.504120e+03,,7.550800e+02,4.504120e+04
7.326000e+02,4.400680e+03,,7.540800e+02,4.400680e+04
7.336000e+02,4.394530e+03,,7.530800e+02,4.394530e+04
7.346000e+02,4.432350e+03,,7.520800e+02,4.432350e+04
7.356000e+02,4.328180e+03,,7.510800e+02,4.328180e+04
7.366000e+02,4.478980e+03,,7.500800e+02,4.478980e+04
7.376000e+02,4.580830e+03,,7.490800e+02,4.580830e+04
7.386000e+02,4.498670e+03,,7.480800e+02,4.498670e+04
7.396000e+02,4.508800e+03,,7.470800e+02,4.508800e+04
7.406000e+02,4.481240e+03,,7.460800e+02,4.481240e+04
7.416000e+02,4.478450e+03,,7.450800e+02,4.478450e+04
7.426000e+02,4.606570e+03,,7.440800e+02,4.606570e+04
7.436000e+02,4.565160e+03,,7.430800e+02,4.565160e+04
7.446000e+02,4.518140e+03,,7.420800e+02,4.518140e+04
7.456000e+02,4.678150e+03,,7.410800e+02,4.678150e+04
7.466000e+02,4.468510e+03,,7.400800e+02,4.468510e+04
7.476000e+02,4.448420e+03,,7.390800e+02,4.448420e+04
7.486000e+02,4.521970e+03,,7.380800e+02,4.521970e+04
7.496000e+02,4.527380e+03,,7.370800e+02,4.527380e+04
7.506000e+02,4.621630e+03,,7.360800e+02,4.621630e+04
7.516000e+02,4.483660e+03,,7.350800e+02,4.483660e+04
7.526000e+02,4.416930e+03,,7.340800e+02,4.416930e+04
7.536000e+02,4.518860e+03,,7.330800e+02,4.518860e+04
7.546000e+02,4.583780e+03,,7.320800e+02,4.583780e+04
7.556000e+02,4.558120e+03,,7.310800e+02,4.558120e+04
7.566000e+02,4.573120e+03,,7.300800e+02,4.573120e+04
7.576000e+02,4.646190e+03,,7.290800e+02,4.646190e+04
7.586000e+02,4.479440e+03,,7.280800e+02,4.479440e+04
7.596000e+02,4.563500e+03,,7.270800e+02,4.563500e+04
7.606000e+02,4.655540e+03,,7.260800e+02,4.655540e+04
7.616000e+02,4.609730e+03,,7.250800e+02,4.609730e+04
7.626000e+02,4.569710e+03,,7.240800e+02,4.569710e+04
7.636000e+02,4.638930e+03,,7.230800e+02,4.638930e+04
7.646000e+02,4.636380e+03,,7.220800e+02,4.636380e+04
7.656000e+02,4.735690e+03,,7.210800e+02,4.735690e+04
7.666000e+02,4.565790e+03,,7.200800e+02,4.565790e+04
7.676000e+02,4.625030e+03,,7.190800e+02,4.625030e+04
7.686000e+02,4.611800e+03,,7.180800e+02,4.611800e+04
7.696000e+02,4.673220e+03,,7.170800e+02,4.673220e+04
7.706000e+02,4.766630e+03,,7.160800e+02,4.766630e+04
7.716000e+02,4.619550e+03,,7.150800e+02,4.619550e+04
7.726000e+02,4.733150e+03,,7.140800e+02,4.733150e+04
7.736000e+02,4.749350e+03,,7.130800e+02,4.749350e+04
7.746000e+02,4.756610e+03,,7.120800e+02,4.756610e+04
7.756000e+02,4.753250e+03,,7.110800e+02,4.753250e+04
7.766000e+02,4.671140e+03,,7.100800e+02,4.671140e+04
7.776000e+02,4.605670e+03,,7.090800e+02,4.605670e+04
7.786000e+02,4.699190e+03,,7.080800e+02,4.699190e+04
7.796000e+02,4.762900e+03,,7.070800e+02,4.762900e+04
7.806000e+02,4.773670e+03,,7.060800e+02,4.773670e+04
7.816000e+02,4.771480e+03,,7.050800e+02,4.771480e+04
7.826000e+02,4.814680e+03,,7.040800e+02,4.814680e+04
7.836000e+02,4.842840e+03,,7.030800e+02,4.842840e+04
7.846000e+02,4.712760e+03,,7.020800e+02,4.712760e+04
7.856000e+02,4.730850e+03,,7.010800e+02,4.730850e+04
7.866000e+02,4.742590e+03,,7.000800e+02,4.742590e+04
7.876000e+02,4.755660e+03,,6.990800e+02,4.755660e+04
7.886000e+02,4.803110e+03,,6.980800e+02,4.803110e+04
7.896000e+02,4.856350e+03,,6.970800e+02,4.856350e+04
7.906000e+02,4.698340e+03,,6.960800e+02,4.698340e+04
7.916000e+02,4.754260e+03,,6.950800e+02,4.754260e+04
7.926000e+02,4.910850e+03,,6.940800e+02,4.910850e+04
7.936000e+02,4.800600e+03,,6.930800e+02,4.800600e+04
7.946000e+02,4.783620e+03,,6.920800e+02,4.783620e+04
7.956000e+02,4.892760e+03,,6.910800e+02,4.892760e+04
7.966000e+02,4.841470e+03,,6.900800e+02,4.841470e+04
7.976000e+02,4.969240e+03,,6.890800e+02,4.969240e+04
7.986000e+02,4.793940e+03,,6.880800e+02,4.793940e+04
7.996000e+02,4.873690e+03,,6.870800e+02,4.873690e+04
8.006000e+02,4.682030e+03,,6.860800e+02,4.682030e+04
8.016000e+02,4.826360e+03,,6.850800e+02,4.826360e+04
8.026000e+02,4.872240e+03,,6.840800e+02,4.872240e+04
8.036000e+02,4.915080e+03,,6.830800e+02,4.915080e+04
8.046000e+02,4.928190e+03,,6.820800e+02,4.928190e+04
8.056000e+02,4.935050e+03,,6.810800e+02,4.935050e+04
8.066000e+02,4.922730e+03,,6.800800e+02,4.922730e+04
8.076000e+02,4.824500e+03,,6.790800e+02,4.824500e+04
8.086000e+02,4.913320e+03,,6.780800e+02,4.913320e+04
8.096000e+02,4.923050e+03,,6.770800e+02,4.923050e+04
8.106000e+02,4.934360e+03,,6.760800e+02,4.934360e+04
8.116000e+02,4.972080e+03,,6.750800e+02,4.972080e+04
8.126000e+02,4.885950e+03,,6.740800e+02,4.885950e+04
8.136000e+02,4.920700e+03,,6.730800e+02,4.920700e+04
8.146000e+02,5.060520e+03,,6.720800e+02,5.060520e+04
8.156000e+02,4.932070e+03,,6.710800e+02,4.932070e+04
8.166000e+02,4.836710e+03,,6.700800e+02,4.836710e+04
8.176000e+02,4.900800e+03,,6.690800e+02,4.900800e+04
8.186000e+02,5.013870e+03,,6.680800e+02,5.013870e+04
8.196000e+02,5.032790e+03,,6.670800e+02,5.032790e+04
8.206000e+02,4.981940e+03,,6.660800e+02,4.981940e+04
8.216000e+02,4.953880e+03,,6.650800e+02,4.953880e+04
8.226000e+02,4.976190e+03,,6.640800e+02,4.976190e+04
8.236000e+02,5.002770e+03,,6.630800e+02,5.002770e+04
8.246000e+02,5.053960e+03,,6.620800e+02,5.053960e+04
8.256000e+02,5.064680e+03,,6.610800e+02,5.064680e+04
8.266000e+02,5.054430e+03,,6.600800e+02,5.054430e+04
8.276000e+02,5.097610e+03,,6.590800e+02,5.097610e+04
8.286000e+02,5.095200e+03,,6.580800e+02,5.095200e+04
8.296000e+02,5.031520e+03,,6.570800e+02,5.031520e+04
8.306000e+02,4.996810e+03,,6.560800e+02,4.996810e+04
8.316000e+02,5.084100e+03,,6.550800e+02,5.084100e+04
8.326000e+02,5.002000e+03,,6.540800e+02,5.002000e+04
8.336000e+02,5.052740e+03,,6.530800e+02,5.052740e+04
8.346000e+02,5.071950e+03,,6.520800e+02,5.071950e+04
8.356000e+02,5.029170e+03,,6.510800e+02,5.029170e+04
8.366000e+02,5.083420e+03,,6.500800e+02,5.083420e+04
8.376000e+02,5.104360e+03,,6.490800e+02,5.104360e+04
8.386000e+02,5.076480e+03,,6.480800e+02,5.076480e+04
8.396000e+02,5.258770e+03,,6.470800e+02,5.258770e+04
8.406000e+02,5.316400e+03,,6.460800e+02,5.316400e+04
8.416000e+02,5.137080e+03,,6.450800e+02,5.137080e+04
8.426000e+02,5.086350e+03,,6.440800e+02,5.086350e+04
8.436000e+02,5.127650e+03,,6.430800e+02,5.127650e+04
8.446000e+02,5.200770e+03,,6.420800e+02,5.200770e+04
8.456000e+02,5.116120e+03,,6.410800e+02,5.116120e+04
8.466000e+02,5.323890e+03,,6.400800e+02,5.323890e+04
8.476000e+02,5.175980e+03,,6.390800e+02,5.175980e+04
8.486000e+02,5.289740e+03,,6.380800e+02,5.289740e+04
8.496000e+02,5.195940e+03,,6.370800e+02,5.195940e+04
8.506000e+02,5.290110e+03,,6.360800e+02,5.290110e+04
8.516000e+02,5.304210e+03,,6.350800e+02,5.304210e+04
8.526000e+02,5.213230e+03,,6.340800e+02,5.213230e+04
8.536000e+02,5.310090e+03,,6.330800e+02,5.310090e+04
8.546000e+02,5.330830e+03,,6.320800e+02,5.330830e+04
8.556000e+02,5.200500e+03,,6.310800e+02,5.200500e+04
8.566000e+02,5.221030e+03,,6.300800e+02,5.221030e+04
8.576000e+02,5.324530e+03,,6.290800e+02,5.324530e+04
8.586000e+02,5.204770e+03,,6.280800e+02,5.204770e+04
8.596000e+02,5.280370e+03,,6.270800e+02,5.280370e+04
8.606000e+02,5.262770e+03,,6.260800e+02,5.262770e+04
8.616000e+02,5.364120e+03,,6.250800e+02,5.364120e+04
8.626000e+02,5.451090e+03,,6.240800e+02,5.451090e+04
8.636000e+02,5.212920e+03,,6.230800e+02,5.212920e+04
8.646000e+02,5.287600e+03,,6.220800e+02,5.287600e+04
8.656000e+02,5.319260e+03,,6.210800e+02,5.319260e+04
8.666000e+02,5.363500e+03,,6.200800e+02,5.363500e+04
8.676000e+02,5.385850e+03,,6.190800e+02,5.385850e+04
8.686000e+02,5.215430e+03,,6.180800e+02,5.215430e+04
8.696000e+02,5.322560e+03,,6.170800e+02,5.322560e+04
8.706000e+02,5.291930e+03,,6.160800e+02,5.291930e+04
8.716000e+02,5.370130e+03,,6.150800e+02,5.370130e+04
8.726000e+02,5.479760e+03,,6.140800e+02,5.479760e+04
8.736000e+02,5.269660e+03,,6.130800e+02,5.269660e+04
8.746000e+02,5.523270e+03,,6.120800e+02,5.523270e+04
8.756000e+02,5.354340e+03,,6.110800e+02,5.354340e+04
8.766000e+02,5.362880e+03,,6.100800e+02,5.362880e+04
8.776000e+02,5.369300e+03,,6.090800e+02,5.369300e+04
8.786000e+02,5.343910e+03,,6.080800e+02,5.343910e+04
8.796000e+02,5.497270e+03,,6.070800e+02,5.497270e+04
8.806000e+02,5.564280e+03,,6.060800e+02,5.564280e+04
8.816000e+02,5.576130e+03,,6.050800e+02,5.576130e+04
8.826000e+02,5.373180e+03,,6.040800e+02,5.373180e+04
8.836000e+02,5.508430e+03,,6.030800e+02,5.508430e+04
8.846000e+02,5.600770e+03,,6.020800e+02,5.600770e+04
8.856000e+02,5.550470e+03,,6.010800e+02,5.550470e+04
8.866000e+02,5.570330e+03,,6.000800e+02,5.570330e+04
8.876000e+02,5.528110e+03,,5.990800e+02,5.528110e+04
8.886000e+02,5.636370e+03,,5.980800e+02,5.636370e+04
8.896000e+02,5.587580e+03,,5.970800e+02,5.587580e+04
8.906000e+02,5.602850e+03,,5.960800e+02,5.602850e+04
8.916000e+02,5.636630e+03,,5.950800e+02,5.636630e+04
8.926000e+02,5.612860e+03,,5.940800e+02,5.612860e+04
8.936000e+02,5.607450e+03,,5.930800e+02,5.607450e+04
8.946000e+02,5.618720e+03,,5.920800e+02,5.618720e+04
8.956000e+02,5.543780e+03,,5.910800e+02,5.543780e+04
8.966000e+02,5.737960e+03,,5.900800e+02,5.737960e+04
8.976000e+02,5.632630e+03,,5.890800e+02,5.632630e+04
8.986000e+02,5.698520e+03,,5.880800e+02,5.698520e+04
8.996000e+02,5.863560e+03,,5.870800e+02,5.863560e+04
9.006000e+02,5.751060e+03,,5.860800e+02,5.751060e+04
9.016000e+02,5.838440e+03,,5.850800e+02,5.838440e+04
9.026000e+02,5.773200e+03,,5.840800e+02,5.773200e+04
9.036000e+02,5.760760e+03,,5.830800e+02,5.760760e+04
9.046000e+02,5.686360e+03,,5.820800e+02,5.686360e+04
9.056000e+02,5.799550e+03,,5.810800e+02,5.799550e+04
9.066000e+02,5.599280e+03,,5.800800e+02,5.599280e+04
9.076000e+02,5.772880e+03,,5.790800e+02,5.772880e+04
9.086000e+02,5.731880e+03,,5.780800e+02,5.731880e+04
9.096000e+02,5.625850e+03,,5.770800e+02,5.625850e+04
9.106000e+02,5.762720e+03,,5.760800e+02,5.762720e+04
9.116000e+02,5.733820e+03,,5.750800e+02,5.733820e+04
9.126000e+02,5.683420e+03,,5.740800e+02,5.683420e+04
9.136000e+02,5.748940e+03,,5.730800e+02,5.748940e+04
9.146000e+02,5.703190e+03,,5.720800e+02,5.703190e+04
9.156000e+02,5.569410e+03,,5.710800e+02,5.569410e+04
9.166000e+02,5.431990e+03,,5.700800e+02,5.431990e+04
9.176000e+02,5.398300e+03,,5.690800e+02,5.398300e+04
9.186000e+02,5.535370e+03,,5.680800e+02,5.535370e+04
9.196000e+02,5.280610e+03,,5.670800e+02,5.280610e+04
9.206000e+02,5.331380e+03,,5.660800e+02,5.331380e+04
9.216000e+02,5.495410e+03,,5.650800e+02,5.495410e+04
9.226000e+02,5.458130e+03,,5.640800e+02,5.458130e+04
9.236000e+02,5.750520e+03,,5.630800e+02,5.750520e+04
9.246000e+02,6.016540e+03,,5.620800e+02,6.016540e+04
9.256000e+02,6.232100e+03,,5.610800e+02,6.232100e+04
9.266000e+02,6.349670e+03,,5.600800e+02,6.349670e+04
9.276000e+02,6.547800e+03,,5.590800e+02,6.547800e+04
9.286000e+02,6.584890e+03,,5.580800e+02,6.584890e+04
9.296000e+02,6.873230e+03,,5.570800e+02,6.873230e+04
9.306000e+02,6.905140e+03,,5.560800e+02,6.905140e+04
9.316000e+02,6.881660e+03,,5.550800e+02,6.881660e+04
9.326000e+02,6.644760e+03,,5.540800e+02,6.644760e+04
9.336000e+02,6.131540e+03,,5.530800e+02,6.131540e+04
9.346000e+02,5.751660e+03,,5.520800e+02,5.751660e+04
9.356000e+02,5.428630e+03,,5.510800e+02,5.428630e+04
9.366000e+02,5.140740e+03,,5.500800e+02,5.140740e+04
9.376000e+02,5.070040e+03,,5.490800e+02,5.070040e+04
9.386000e+02,4.764530e+03,,5.480800e+02,4.764530e+04
9.396000e+02,4.501670e+03,,5.470800e+02,4.501670e+04
9.406000e+02,4.157490e+03,,5.460800e+02,4.157490e+04
9.416000e+02,3.836700e+03,,5.450800e+02,3.836700e+04
9.426000e+02,3.306380e+03,,5.440800e+02,3.306380e+04
9.436000e+02,2.716530e+03,,5.430800e+02,2.716530e+04
9.446000e+02,2.317690e+03,,5.420800e+02,2.317690e+04
9.456000e+02,1.977540e+03,,5.410800e+02,1.977540e+04
9.466000e+02,1.889720e+03,,5.400800e+02,1.889720e+04
9.476000e+02,2.115210e+03,,5.390800e+02,2.115210e+04
9.486000e+02,2.517110e+03,,5.380800e+02,2.517110e+04
9.496000e+02,4.070450e+03,,5.370800e+02,4.070450e+04
9.506000e+02,7.116380e+03,,5.360800e+02,7.116380e+04
9.516000e+02,1.135990e+04,,5.350800e+02,1.135990e+05
9.526000e+02,2.187040e+04,,5.340800e+02,2.187040e+05
9.536000e+02,3.396200e+04,,5.330800e+02,3.396200e+05
9.546000e+02,2.310320e+04,,5.320800e+02,2.310320e+05
9.556000e+02,7.369390e+03,,5.310800e+02,7.369390e+04
9.566000e+02,2.754760e+03,,5.300800e+02,2.754760e+04
9.576000e+02,2.023810e+03,,5.290800e+02,2.023810e+04
9.586000e+02,1.824570e+03,,5.280800e+02,1.824570e+04
9.596000e+02,1.625210e+03,,5.270800e+02,1.625210e+04
9.606000e+02,1.633630e+03,,5.260800e+02,1.633630e+04
9.616000e+02,1.584410e+03,,5.250800e+02,1.584410e+04
9.626000e+02,1.480870e+03,,5.240800e+02,1.480870e+04
9.636000e+02,1.511520e+03,,5.230800e+02,1.511520e+04
9.646000e+02,1.462610e+03,,5.220800e+02,1.462610e+04
9.656000e+02,1.391720e+03,,5.210800e+02,1.391720e+04
9.666000e+02,1.450660e+03,,5.200800e+02,1.450660e+04
9.676000e+02,1.424570e+03,,5.190800e+02,1.424570e+04
9.686000e+02,1.466430e+03,,5.180800e+02,1.466430e+04
9.696000e+02,1.442050e+03,,5.170800e+02,1.442050e+04
9.706000e+02,1.409370e+03,,5.160800e+02,1.409370e+04
9.716000e+02,1.414290e+03,,5.150800e+02,1.414290e+04
9.726000e+02,1.402040e+03,,5.140800e+02,1.402040e+04
9.736000e+02,1.434580e+03,,5.130800e+02,1.434580e+04
9.746000e+02,1.490690e+03,,5.120800e+02,1.490690e+04
9.756000e+02,1.440050e+03,,5.110800e+02,1.440050e+04
9.766000e+02,1.478790e+03,,5.100800e+02,1.478790e+04
9.776000e+02,1.373850e+03,,5.090800e+02,1.373850e+04
9.786000e+02,1.480250e+03,,5.080800e+02,1.480250e+04
9.796000e+02,1.513300e+03,,5.070800e+02,1.513300e+04
9.806000e+02,1.473080e+03,,5.060800e+02,1.473080e+04
9.816000e+02,1.466380e+03,,5.050800e+02,1.466380e+04
9.826000e+02,1.490090e+03,,5.040800e+02,1.490090e+04
9.836000e+02,1.501280e+03,,5.030800e+02,1.501280e+04
9.846000e+02,1.448020e+03,,5.020800e+02,1.448020e+04
9.856000e+02,1.413250e+03,,5.010800e+02,1.413250e+04
9.866000e+02,1.429070e+03,,5.000800e+02,1.429070e+04
9.876000e+02,1.415660e+03,,4.990800e+02,1.415660e+04
9.886000e+02,1.444510e+03,,4.980800e+02,1.444510e+04
9.896000e+02,1.356840e+03,,4.970800e+02,1.356840e+04
9.906000e+02,1.436570e+03,,4.960800e+02,1.436570e+04
9.916000e+02,1.437990e+03,,4.950800e+02,1.437990e+04
9.926000e+02,1.362610e+03,,4.940800e+02,1.362610e+04
9.936000e+02,1.407370e+03,,4.930800e+02,1.407370e+04
9.946000e+02,1.490100e+03,,4.920800e+02,1.490100e+04
9.956000e+02,1.401910e+03,,4.910800e+02,1.401910e+04
9.966000e+02,1.508310e+03,,4.900800e+02,1.508310e+04
9.976000e+02,1.440700e+03,,4.890800e+02,1.440700e+04
9.986000e+02,1.374170e+03,,4.880800e+02,1.374170e+04
9.996000e+02,1.490540e+03,,4.870800e+02,1.490540e+04
1.000600e+03,1.441580e+03,,4.860800e+02,1.441580e+04
1.001600e+03,1.443070e+03,,4.850800e+02,1.443070e+04
1.002600e+03,1.436120e+03,,4.840800e+02,1.436120e+04
1.003600e+03,1.435580e+03,,4.830800e+02,1.435580e+04
1.004600e+03,1.358230e+03,,4.820800e+02,1.358230e+04
1.005600e+03,1.425710e+03,,4.810800e+02,1.425710e+04
1.006600e+03,1.457520e+03,,4.800800e+02,1.457520e+04
1.007600e+03,1.413190e+03,,4.790800e+02,1.413190e+04
1.008600e+03,1.469300e+03,,4.780800e+02,1.469300e+04
1.009600e+03,1.456040e+03,,4.770800e+02,1.456040e+04
1.010600e+03,1.447390e+03,,4.760800e+02,1.447390e+04
1.011600e+03,1.441100e+03,,4.750800e+02,1.441100e+04
1.012600e+03,1.407460e+03,,4.740800e+02,1.407460e+04
1.013600e+03,1.450970e+03,,4.730800e+02,1.450970e+04
1.014600e+03,1.431850e+03,,4.720800e+02,1.431850e+04
1.015600e+03,1.482070e+03,,4.710800e+02,1.482070e+04
1.016600e+03,1.437200e+03,,4.700800e+02,1.437200e+04
1.017600e+03,1.484470e+03,,4.690800e+02,1.484470e+04
1.018600e+03,1.443400e+03,,4.680800e+02,1.443400e+04
1.019600e+03,1.473640e+03,,4.670800e+02,1.473640e+04
1.020600e+03,1.455370e+03,,4.660800e+02,1.455370e+04
1.021600e+03,1.413640e+03,,4.650800e+02,1.413640e+04
1.022600e+03,1.442580e+03,,4.640800e+02,1.442580e+04
1.023600e+03,1.458890e+03,,4.630800e+02,1.458890e+04
1.024600e+03,1.401280e+03,,4.620800e+02,1.401280e+04
1.025600e+03,1.458650e+03,,4.610800e+02,1.458650e+04
1.026600e+03,1.485870e+03,,4.600800e+02,1.485870e+04
1.027600e+03,1.496080e+03,,4.590800e+02,1.496080e+04
1.028600e+03,1.472750e+03,,4.580800e+02,1.472750e+04
1.029600e+03,1.442650e+03,,4.570800e+02,1.442650e+04
1.030600e+03,1.452580e+03,,4.560800e+02,1.452580e+04
1.031600e+03,1.424130e+03,,4.550800e+02,1.424130e+04
1.032600e+03,1.483070e+03,,4.540800e+02,1.483070e+04
1.033600e+03,1.444620e+03,,4.530800e+02,1.444620e+04
1.034600e+03,1.415580e+03,,4.520800e+02,1.415580e+04
1.035600e+03,1.501350e+03,,4.510800e+02,1.501350e+04
1.036600e+03,1.433600e+03,,4.500800e+02,1.433600e+04
1.037600e+03,1.438860e+03,,4.490800e+02,1.438860e+04
1.038600e+03,1.412430e+03,,4.480800e+02,1.412430e+04
1.039600e+03,1.546900e+03,,4.470800e+02,1.546900e+04
1.040600e+03,1.431610e+03,,4.460800e+02,1.431610e+04
1.041600e+03,1.456680e+03,,4.450800e+02,1.456680e+04
1.042600e+03,1.516590e+03,,4.440800e+02,1.516590e+04
1.043600e+03,1.545260e+03,,4.430800e+02,1.545260e+04
1.044600e+03,1.485450e+03,,4.420800e+02,1.485450e+04
1.045600e+03,1.379690e+03,,4.410800e+02,1.379690e+04
1.046600e+03,1.418820e+03,,4.400800e+02,1.418820e+04
1.047600e+03,1.491000e+03,,4.390800e+02,1.491000e+04
1.048600e+03,1.494800e+03,,4.380800e+02,1.494800e+04
1.049600e+03,1.497840e+03,,4.370800e+02,1.497840e+04
1.050600e+03,1.475320e+03,,4.360800e+02,1.475320e+04
1.051600e+03,1.409880e+03,,4.350800e+02,1.409880e+04
1.052600e+03,1.510340e+03,,4.340800e+02,1.510340e+04
1.053600e+03,1.437560e+03,,4.330800e+02,1.437560e+04
1.054600e+03,1.467720e+03,,4.320800e+02,1.467720e+04
1.055600e+03,1.479360e+03,,4.310800e+02,1.479360e+04
1.056600e+03,1.520830e+03,,4.300800e+02,1.520830e+04
1.057600e+03,1.422280e+03,,4.290800e+02,1.422280e+04
1.058600e+03,1.462320e+03,,4.280800e+02,1.462320e+04
1.059600e+03,1.515990e+03,,4.270800e+02,1.515990e+04
1.060600e+03,1.468540e+03,,4.260800e+02,1.468540e+04
1.061600e+03,1.430130e+03,,4.250800e+02,1.430130e+04
1.062600e+03,1.473760e+03,,4.240800e+02,1.473760e+04
1.063600e+03,1.492600e+03,,4.230800e+02,1.492600e+04
1.064600e+03,1.574420e+03,,4.220800e+02,1.574420e+04
1.065600e+03,1.542380e+03,,4.210800e+02,1.542380e+04
1.066600e+03,1.427890e+03,,4.200800e+02,1.427890e+04
1.067600e+03,1.528160e+03,,4.190800e+02,1.528160e+04
1.068600e+03,1.489900e+03,,4.180800e+02,1.489900e+04
1.069600e+03,1.525590e+03,,4.170800e+02,1.525590e+04
1.070600e+03,1.543270e+03,,4.160800e+02,1.543270e+04
1.071600e+03,1.509710e+03,,4.150800e+02,1.509710e+04
1.072600e+03,1.494590e+03,,4.140800e+02,1.494590e+04
1.073600e+03,1.597160e+03,,4.130800e+02,1.597160e+04
1.074600e+03,1.561240e+03,,4.120800e+02,1.561240e+04
1.075600e+03,1.592940e+03,,4.110800e+02,1.592940e+04
1.076600e+03,1.459040e+03,,4.100800e+02,1.459040e+04
1.077600e+03,1.494020e+03,,4.090800e+02,1.494020e+04
1.078600e+03,1.567590e+03,,4.080800e+02,1.567590e+04
1.079600e+03,1.499590e+03,,4.070800e+02,1.499590e+04
1.080600e+03,1.565140e+03,,4.060800e+02,1.565140e+04
1.081600e+03,1.516610e+03,,4.050800e+02,1.516610e+04
1.082600e+03,1.554120e+03,,4.040800e+02,1.554120e+04
1.083600e+03,1.501110e+03,,4.030800e+02,1.501110e+04
1.084600e+03,1.552150e+03,,4.020800e+02,1.552150e+04
1.085600e+03,1.629940e+03,,4.010800e+02,1.629940e+04
1.086600e+03,1.542870e+03,,4.000800e+02,1.542870e+04
1.087600e+03,1.589030e+03,,3.990800e+02,1.589030e+04
1.088600e+03,1.585070e+03,,3.980800e+02,1.585070e+04
1.089600e+03,1.606010e+03,,3.970800e+02,1.606010e+04
1.090600e+03,1.515780e+03,,3.960800e+02,1.515780e+04
1.091600e+03,1.554820e+03,,3.950800e+02,1.554820e+04
1.092600e+03,1.539820e+03,,3.940800e+02,1.539820e+04
1.093600e+03,1.532970e+03,,3.930800e+02,1.532970e+04
1.094600e+03,1.569330e+03,,3.920800e+02,1.569330e+04
1.095600e+03,1.513950e+03,,3.910800e+02,1.513950e+04
1.096600e+03,1.586720e+03,,3.900800e+02,1.586720e+04
1.097600e+03,1.620630e+03,,3.890800e+02,1.620630e+04
1.098600e+03,1.564290e+03,,3.880800e+02,1.564290e+04
1.099600e+03,1.596260e+03,,3.870800e+02,1.596260e+04
1.100600e+03,1.529470e+03,,3.860800e+02,1.529470e+04
1.101600e+03,1.585680e+03,,3.850800e+02,1.585680e+04
1.102600e+03,1.525300e+03,,3.840800e+02,1.525300e+04
1.103600e+03,1.527910e+03,,3.830800e+02,1.527910e+04
1.104600e+03,1.551980e+03,,3.820800e+02,1.551980e+04
1.105600e+03,1.552310e+03,,3.810800e+02,1.552310e+04
1.106600e+03,1.562190e+03,,3.800800e+02,1.562190e+04
1.107600e+03,1.562060e+03,,3.790800e+02,1.562060e+04
1.108600e+03,1.577260e+03,,3.780800e+02,1.577260e+04
1.109600e+03,1.516310e+03,,3.770800e+02,1.516310e+04
1.110600e+03,1.583900e+03,,3.760800e+02,1.583900e+04
1.111600e+03,1.531820e+03,,3.750800e+02,1.531820e+04
1.112600e+03,1.553430e+03,,3.740800e+02,1.553430e+04
1.113600e+03,1.536900e+03,,3.730800e+02,1.536900e+04
1.114600e+03,1.626450e+03,,3.720800e+02,1.626450e+04
1.115600e+03,1.574870e+03,,3.710800e+02,1.574870e+04
1.116600e+03,1.575340e+03,,3.700800e+02,1.575340e+04
1.117600e+03,1.621750e+03,,3.690800e+02,1.621750e+04
1.118600e+03,1.594790e+03,,3.680800e+02,1.594790e+04
1.119600e+03,1.562020e+03,,3.670800e+02,1.562020e+04
1.120600e+03,1.612730e+03,,3.660800e+02,1.612730e+04
1.121600e+03,1.638480e+03,,3.650800e+02,1.638480e+04
1.122600e+03,1.584880e+03,,3.640800e+02,1.584880e+04
1.123600e+03,1.580040e+03,,3.630800e+02,1.580040e+04
1.124600e+03,1.637490e+03,,3.620800e+02,1.637490e+04
1.125600e+03,1.626610e+03,,3.610800e+02,1.626610e+04
1.126600e+03,1.689890e+03,,3.600800e+02,1.689890e+04
1.127600e+03,1.519970e+03,,3.590800e+02,1.519970e+04
1.128600e+03,1.614060e+03,,3.580800e+02,1.614060e+04
1.129600e+03,1.626400e+03,,3.570800e+02,1.626400e+04
1.130600e+03,1.683130e+03,,3.560800e+02,1.683130e+04
1.131600e+03,1.686860e+03,,3.550800e+02,1.686860e+04
1.132600e+03,1.681630e+03,,3.540800e+02,1.681630e+04
1.133600e+03,1.632680e+03,,3.530800e+02,1.632680e+04
1.134600e+03,1.583650e+03,,3.520800e+02,1.583650e+04
1.135600e+03,1.604640e+03,,3.510800e+02,1.604640e+04
1.136600e+03,1.676950e+03,,3.500800e+02,1.676950e+04
1.137600e+03,1.651300e+03,,3.490800e+02,1.651300e+04
1.138600e+03,1.611680e+03,,3.480800e+02,1.611680e+04
1.139600e+03,1.649550e+03,,3.470800e+02,1.649550e+04
1.140600e+03,1.614200e+03,,3.460800e+02,1.614200e+04
1.141600e+03,1.692380e+03,,3.450800e+02,1.692380e+04
1.142600e+03,1.636500e+03,,3.440800e+02,1.636500e+04
1.143600e+03,1.685100e+03,,3.430800e+02,1.685100e+04
1.144600e+03,1.643440e+03,,3.420800e+02,1.643440e+04
1.145600e+03,1.695990e+03,,3.410800e+02,1.695990e+04
1.146600e+03,1.665870e+03,,3.400800e+02,1.665870e+04
1.147600e+03,1.670540e+03,,3.390800e+02,1.670540e+04
1.148600e+03,1.631850e+03,,3.380800e+02,1.631850e+04
1.149600e+03,1.722780e+03,,3.370800e+02,1.722780e+04
1.150600e+03,1.662080e+03,,3.360800e+02,1.662080e+04
1.151600e+03,1.678570e+03,,3.350800e+02,1.678570e+04
1.152600e+03,1.625520e+03,,3.340800e+02,1.625520e+04
1.153600e+03,1.669380e+03,,3.330800e+02,1.669380e+04
1.154600e+03,1.699440e+03,,3.320800e+02,1.699440e+04
1.155600e+03,1.633770e+03,,3.310800e+02,1.633770e+04
1.156600e+03,1.652950e+03,,3.300800e+02,1.652950e+04
1.157600e+03,1.737340e+03,,3.290800e+02,1.737340e+04
1.158600e+03,1.667890e+03,,3.280800e+02,1.667890e+04
1.159600e+03,1.692780e+03,,3.270800e+02,1.692780e+04
1.160600e+03,1.723060e+03,,3.260800e+02,1.723060e+04
1.161600e+03,1.717910e+03,,3.250800e+02,1.717910e+04
1.162600e+03,1.708830e+03,,3.240800e+02,1.708830e+04
1.163600e+03,1.696480e+03,,3.230800e+02,1.696480e+04
1.164600e+03,1.715150e+03,,3.220800e+02,1.715150e+04
1.165600e+03,1.788590e+03,,3.210800e+02,1.788590e+04
1.166600e+03,1.720550e+03,,3.200800e+02,1.720550e+04
1.167600e+03,1.705480e+03,,3.190800e+02,1.705480e+04
1.168600e+03,1.718470e+03,,3.180800e+02,1.718470e+04
1.169600e+03,1.724170e+03,,3.170800e+02,1.724170e+04
1.170600e+03,1.628940e+03,,3.160800e+02,1.628940e+04
1.171600e+03,1.749760e+03,,3.150800e+02,1.749760e+04
1.172600e+03,1.769040e+03,,3.140800e+02,1.769040e+04
1.173600e+03,1.820490e+03,,3.130800e+02,1.820490e+04
1.174600e+03,1.684810e+03,,3.120800e+02,1.684810e+04
1.175600e+03,1.708880e+03,,3.110800e+02,1.708880e+04
1.176600e+03,1.799130e+03,,3.100800e+02,1.799130e+04
1.177600e+03,1.738890e+03,,3.090800e+02,1.738890e+04
1.178600e+03,1.737880e+03,,3.080800e+02,1.737880e+04
1.179600e+03,1.753650e+03,,3.070800e+02,1.753650e+04
1.180600e+03,1.763670e+03,,3.060800e+02,1.763670e+04
1.181600e+03,1.752590e+03,,3.050800e+02,1.752590e+04
1.182600e+03,1.728710e+03,,3.040800e+02,1.728710e+04
1.183600e+03,1.696400e+03,,3.030800e+02,1.696400e+04
1.184600e+03,1.755350e+03,,3.020800e+02,1.755350e+04
1.185600e+03,1.694640e+03,,3.010800e+02,1.694640e+04
1.186600e+03,1.633330e+03,,3.000800e+02,1.633330e+04
1.187600e+03,1.598590e+03,,2.990800e+02,1.598590e+04
1.188600e+03,1.680770e+03,,2.980800e+02,1.680770e+04
1.189600e+03,1.585860e+03,,2.970800e+02,1.585860e+04
1.190600e+03,1.460360e+03,,2.960800e+02,1.460360e+04
1.191600e+03,1.499520e+03,,2.950800e+02,1.499520e+04
1.192600e+03,1.480420e+03,,2.940800e+02,1.480420e+04
1.193600e+03,1.438530e+03,,2.930800e+02,1.438530e+04
1.194600e+03,1.469410e+03,,2.920800e+02,1.469410e+04
1.195600e+03,1.599140e+03,,2.910800e+02,1.599140e+04
1.196600e+03,1.766000e+03,,2.900800e+02,1.766000e+04
1.197600e+03,2.018990e+03,,2.890800e+02,2.018990e+04
1.198600e+03,2.524030e+03,,2.880800e+02,2.524030e+04
1.199600e+03,3.299620e+03,,2.870800e+02,3.299620e+04
1.200600e+03,3.677350e+03,,2.860800e+02,3.677350e+04
1.201600e+03,3.674400e+03,,2.850800e+02,3.674400e+04
1.202600e+03,2.719280e+03,,2.840800e+02,2.719280e+04
1.203600e+03,1.649810e+03,,2.830800e+02,1.649810e+04
1.204600e+03,1.486010e+03,,2.820800e+02,1.486010e+04
1.205600e+03,1.370860e+03,,2.810800e+02,1.370860e+04
1.206600e+03,1.430050e+03,,2.800800e+02,1.430050e+04
1.207600e+03,1.371560e+03,,2.790800e+02,1.371560e+04
1.208600e+03,1.369700e+03,,2.780800e+02,1.369700e+04
1.209600e+03,1.381940e+03,,2.770800e+02,1.381940e+04
1.210600e+03,1.365860e+03,,2.760800e+02,1.365860e+04
1.211600e+03,1.481140e+03,,2.750800e+02,1.481140e+04
1.212600e+03,1.436590e+03,,2.740800e+02,1.436590e+04
1.213600e+03,1.467110e+03,,2.730800e+02,1.467110e+04
1.214600e+03,1.434800e+03,,2.720800e+02,1.434800e+04
1.215600e+03,1.450620e+03,,2.710800e+02,1.450620e+04
1.216600e+03,1.439500e+03,,2.700800e+02,1.439500e+04
1.217600e+03,1.411760e+03,,2.690800e+02,1.411760e+04
1.218600e+03,1.423060e+03,,2.680800e+02,1.423060e+04
1.219600e+03,1.424790e+03,,2.670800e+02,1.424790e+04
1.220600e+03,1.475660e+03,,2.660800e+02,1.475660e+04
1.221600e+03,1.436210e+03,,2.650800e+02,1.436210e+04
1.222600e+03,1.419610e+03,,2.640800e+02,1.419610e+04
1.223600e+03,1.366830e+03,,2.630800e+02,1.366830e+04
1.224600e+03,1.478690e+03,,2.620800e+02,1.478690e+04
1.225600e+03,1.452570e+03,,2.610800e+02,1.452570e+04
1.226600e+03,1.427940e+03,,2.600800e+02,1.427940e+04
1.227600e+03,1.461660e+03,,2.590800e+02,1.461660e+04
1.228600e+03,1.457090e+03,,2.580800e+02,1.457090e+04
1.229600e+03,1.468730e+03,,2.570800e+02,1.468730e+04
1.230600e+03,1.416760e+03,,2.560800e+02,1.416760e+04
1.231600e+03,1.409500e+03,,2.550800e+02,1.409500e+04
1.232600e+03,1.453770e+03,,2.540800e+02,1.453770e+04
1.233600e+03,1.419920e+03,,2.530800e+02,1.419920e+04
1.234600e+03,1.358990e+03,,2.520800e+02,1.358990e+04
1.235600e+03,1.462330e+03,,2.510800e+02,1.462330e+04
1.236600e+03,1.518070e+03,,2.500800e+02,1.518070e+04
1.237600e+03,1.477150e+03,,2.490800e+02,1.477150e+04
1.238600e+03,1.459830e+03,,2.480800e+02,1.459830e+04
1.239600e+03,1.454290e+03,,2.470800e+02,1.454290e+04
1.240600e+03,1.491770e+03,,2.460800e+02,1.491770e+04
1.241600e+03,1.462260e+03,,2.450800e+02,1.462260e+04
1.242600e+03,1.533720e+03,,2.440800e+02,1.533720e+04
1.243600e+03,1.499030e+03,,2.430800e+02,1.499030e+04
1.244600e+03,1.511960e+03,,2.420800e+02,1.511960e+04
1.245600e+03,1.502940e+03,,2.410800e+02,1.502940e+04
1.246600e+03,1.471480e+03,,2.400800e+02,1.471480e+04
1.247600e+03,1.528490e+03,,2.390800e+02,1.528490e+04
1.248600e+03,1.473270e+03,,2.380800e+02,1.473270e+04
1.249600e+03,1.486050e+03,,2.370800e+02,1.486050e+04
1.250600e+03,1.498460e+03,,2.360800e+02,1.498460e+04
1.251600e+03,1.477690e+03,,2.350800e+02,1.477690e+04
1.252600e+03,1.385540e+03,,2.340800e+02,1.385540e+04
1.253600e+03,1.439870e+03,,2.330800e+02,1.439870e+04
1.254600e+03,1.500540e+03,,2.320800e+02,1.500540e+04
1.255600e+03,1.519460e+03,,2.310800e+02,1.519460e+04
1.256600e+03,1.461960e+03,,2.300800e+02,1.461960e+04
1.257600e+03,1.483210e+03,,2.290800e+02,1.483210e+04
1.258600e+03,1.482330e+03,,2.280800e+02,1.482330e+04
1.259600e+03,1.476070e+03,,2.270800e+02,1.476070e+04
1.260600e+03,1.529390e+03,,2.260800e+02,1.529390e+04
1.261600e+03,1.489470e+03,,2.250800e+02,1.489470e+04
1.262600e+03,1.485510e+03,,2.240800e+02,1.485510e+04
1.263600e+03,1.548440e+03,,2.230800e+02,1.548440e+04
1.264600e+03,1.490380e+03,,2.220800e+02,1.490380e+04
1.265600e+03,1.501260e+03,,2.210800e+02,1.501260e+04
1.266600e+03,1.528210e+03,,2.200800e+02,1.528210e+04
1.267600e+03,1.490220e+03,,2.190800e+02,1.490220e+04
1.268600e+03,1.538610e+03,,2.180800e+02,1.538610e+04
1.269600e+03,1.602090e+03,,2.170800e+02,1.602090e+04
1.270600e+03,1.591340e+03,,2.160800e+02,1.591340e+04
1.271600e+03,1.562050e+03,,2.150800e+02,1.562050e+04
1.272600e+03,1.515960e+03,,2.140800e+02,1.515960e+04
1.273600e+03,1.583360e+03,,2.130800e+02,1.583360e+04
1.274600e+03,1.610910e+03,,2.120800e+02,1.610910e+04
1.275600e+03,1.553520e+03,,2.110800e+02,1.553520e+04
1.276600e+03,1.559640e+03,,2.100800e+02,1.559640e+04
1.277600e+03,1.604620e+03,,2.090800e+02,1.604620e+04
1.278600e+03,1.617870e+03,,2.080800e+02,1.617870e+04
1.279600e+03,1.600780e+03,,2.070800e+02,1.600780e+04
1.280600e+03,1.612630e+03,,2.060800e+02,1.612630e+04
1.281600e+03,1.596460e+03,,2.050800e+02,1.596460e+04
1.282600e+03,1.689900e+03,,2.040800e+02,1.689900e+04
1.283600e+03,1.573390e+03,,2.030800e+02,1.573390e+04
1.284600e+03,1.571730e+03,,2.020800e+02,1.571730e+04
1.285600e+03,1.594670e+03,,2.010800e+02,1.594670e+04
1.286600e+03,1.640410e+03,,2.000800e+02,1.640410e+04
1.287600e+03,1.567550e+03,,1.990800e+02,1.567550e+04
1.288600e+03,1.611290e+03,,1.980800e+02,1.611290e+04
1.289600e+03,1.596960e+03,,1.970800e+02,1.596960e+04
1.290600e+03,1.641190e+03,,1.960800e+02,1.641190e+04
1.291600e+03,1.667160e+03,,1.950800e+02,1.667160e+04
1.292600e+03,1.645060e+03,,1.940800e+02,1.645060e+04
1.293600e+03,1.676650e+03,,1.930800e+02,1.676650e+04
1.294600e+03,1.605890e+03,,1.920800e+02,1.605890e+04
1.295600e+03,1.655610e+03,,1.910800e+02,1.655610e+04
1.296600e+03,1.661780e+03,,1.900800e+02,1.661780e+04
1.297600e+03,1.693150e+03,,1.890800e+02,1.693150e+04
1.298600e+03,1.624780e+03,,1.880800e+02,1.624780e+04
1.299600e+03,1.588170e+03,,1.870800e+02,1.588170e+04
1.300600e+03,1.624860e+03,,1.860800e+02,1.624860e+04
1.301600e+03,1.673930e+03,,1.850800e+02,1.673930e+04
1.302600e+03,1.645740e+03,,1.840800e+02,1.645740e+04
1.303600e+03,1.638970e+03,,1.830800e+02,1.638970e+04
1.304600e+03,1.650560e+03,,1.820800e+02,1.650560e+04
1.305600e+03,1.748130e+03,,1.810800e+02,1.748130e+04
1.306600e+03,1.823400e+03,,1.800800e+02,1.823400e+04
1.307600e+03,1.776870e+03,,1.790800e+02,1.776870e+04
1.308600e+03,1.821890e+03,,1.780800e+02,1.821890e+04
1.309600e+03,1.830870e+03,,1.770800e+02,1.830870e+04
1.310600e+03,1.927130e+03,,1.760800e+02,1.927130e+04
1.311600e+03,1.940880e+03,,1.750800e+02,1.940880e+04
1.312600e+03,1.909370e+03,,1.740800e+02,1.909370e+04
1.313600e+03,1.832590e+03,,1.730800e+02,1.832590e+04
1.314600e+03,1.738150e+03,,1.720800e+02,1.738150e+04
1.315600e+03,1.712470e+03,,1.710800e+02,1.712470e+04
1.316600e+03,1.643660e+03,,1.700800e+02,1.643660e+04
1.317600e+03,1.648420e+03,,1.690800e+02,1.648420e+04
1.318600e+03,1.494160e+03,,1.680800e+02,1.494160e+04
1.319600e+03,1.447820e+03,,1.670800e+02,1.447820e+04
1.320600e+03,1.368060e+03,,1.660800e+02,1.368060e+04
1.321600e+03,1.251220e+03,,1.650800e+02,1.251220e+04
1.322600e+03,1.187190e+03,,1.640800e+02,1.187190e+04
1.323600e+03,1.228120e+03,,1.630800e+02,1.228120e+04
1.324600e+03,1.164640e+03,,1.620800e+02,1.164640e+04
1.325600e+03,1.271070e+03,,1.610800e+02,1.271070e+04
1.326600e+03,1.329850e+03,,1.600800e+02,1.329850e+04
1.327600e+03,1.611490e+03,,1.590800e+02,1.611490e+04
1.328600e+03,2.092600e+03,,1.580800e+02,2.092600e+04
1.329600e+03,2.855120e+03,,1.570800e+02,2.855120e+04
1.330600e+03,4.092450e+03,,1.560800e+02,4.092450e+04
1.331600e+03,5.668450e+03,,1.550800e+02,5.668450e+04
1.332600e+03,5.337870e+03,,1.540800e+02,5.337870e+04
1.333600e+03,3.395950e+03,,1.530800e+02,3.395950e+04
1.334600e+03,2.167900e+03,,1.520800e+02,2.167900e+04
1.335600e+03,1.458440e+03,,1.510800e+02,1.458440e+04
1.336600e+03,1.349380e+03,,1.500800e+02,1.349380e+04
1.337600e+03,1.229110e+03,,1.490800e+02,1.229110e+04
1.338600e+03,1.152170e+03,,1.480800e+02,1.152170e+04
1.339600e+03,1.084620e+03,,1.470800e+02,1.084620e+04
1.340600e+03,1.110220e+03,,1.460800e+02,1.110220e+04
1.341600e+03,1.024720e+03,,1.450800e+02,1.024720e+04
1.342600e+03,1.038340e+03,,1.440800e+02,1.038340e+04
1.343600e+03,1.036060e+03,,1.430800e+02,1.036060e+04
1.344600e+03,1.070200e+03,,1.420800e+02,1.070200e+04
1.345600e+03,1.013480e+03,,1.410800e+02,1.013480e+04
1.346600e+03,9.845120e+02,,1.400800e+02,9.845120e+03
1.347600e+03,9.459130e+02,,1.390800e+02,9.459130e+03
1.348600e+03,9.466340e+02,,1.380800e+02,9.466340e+03
1.349600e+03,9.959020e+02,,1.370800e+02,9.959020e+03
1.350600e+03,9.609210e+02,,1.360800e+02,9.609210e+03
1.351600e+03,9.693430e+02,,1.350800e+02,9.693430e+03
1.352600e+03,9.886870e+02,,1.340800e+02,9.886870e+03
1.353600e+03,1.000910e+03,,1.330800e+02,1.000910e+04
1.354600e+03,1.031340e+03,,1.320800e+02,1.031340e+04
1.355600e+03,1.074650e+03,,1.310800e+02,1.074650e+04
1.356600e+03,1.072060e+03,,1.300800e+02,1.072060e+04
1.357600e+03,1.076280e+03,,1.290800e+02,1.076280e+04
1.358600e+03,1.194500e+03,,1.280800e+02,1.194500e+04
1.359600e+03,1.238900e+03,,1.270800e+02,1.238900e+04
1.360600e+03,1.184380e+03,,1.260800e+02,1.184380e+04
1.361600e+03,1.187180e+03,,1.250800e+02,1.187180e+04
1.362600e+03,1.200070e+03,,1.240800e+02,1.200070e+04
1.363600e+03,1.086620e+03,,1.230800e+02,1.086620e+04
1.364600e+03,1.108110e+03,,1.220800e+02,1.108110e+04
1.365600e+03,1.000160e+03,,1.210800e+02,1.000160e+04
1.366600e+03,1.028910e+03,,1.200800e+02,1.028910e+04
1.367600e+03,9.418890e+02,,1.190800e+02,9.418890e+03
1.368600e+03,8.627430e+02,,1.180800e+02,8.627430e+03
1.369600e+03,7.462800e+02,,1.170800e+02,7.462800e+03
1.370600e+03,6.867650e+02,,1.160800e+02,6.867650e+03
1.371600e+03,6.351880e+02,,1.150800e+02,6.351880e+03
1.372600e+03,5.342180e+02,,1.140800e+02,5.342180e+03
1.373600e+03,4.831940e+02,,1.130800e+02,4.831940e+03
1.374600e+03,4.025200e+02,,1.120800e+02,4.025200e+03
1.375600e+03,4.135670e+02,,1.110800e+02,4.135670e+03
1.376600e+03,4.160290e+02,,1.100800e+02,4.160290e+03
1.377600e+03,4.343340e+02,,1.090800e+02,4.343340e+03
1.378600e+03,6.784200e+02,,1.080800e+02,6.784200e+03
1.379600e+03,1.171710e+03,,1.070800e+02,1.171710e+04
1.380600e+03,1.805850e+03,,1.060800e+02,1.805850e+04
1.381600e+03,3.180390e+03,,1.050800e+02,3.180390e+04
1.382600e+03,5.916050e+03,,1.040800e+02,5.916050e+04
1.383600e+03,5.374260e+03,,1.030800e+02,5.374260e+04
1.384600e+03,2.129650e+03,,1.020800e+02,2.129650e+04
1.385600e+03,7.057730e+02,,1.010800e+02,7.057730e+03
1.386600e+03,4.165490e+02,,1.000800e+02,4.165490e+03
1.387600e+03,3.895520e+02,,9.908000e+01,3.895520e+03
1.388600e+03,3.395740e+02,,9.808000e+01,3.395740e+03
1.389600e+03,3.056360e+02,,9.708000e+01,3.056360e+03
1.390600e+03,3.226440e+02,,9.608000e+01,3.226440e+03
1.391600e+03,3.123470e+02,,9.508000e+01,3.123470e+03
1.392600e+03,3.105150e+02,,9.408000e+01,3.105150e+03
1.393600e+03,3.038280e+02,,9.308000e+01,3.038280e+03
1.394600e+03,2.788130e+02,,9.208000e+01,2.788130e+03
1.395600e+03,3.339660e+02,,9.108000e+01,3.339660e+03
1.396600e+03,3.062940e+02,,9.008000e+01,3.062940e+03
1.397600e+03,3.580540e+02,,8.908000e+01,3.580540e+03
1.398600e+03,2.926260e+02,,8.808000e+01,2.926260e+03
1.399600e+03,3.043500e+02,,8.708000e+01,3.043500e+03
1.400600e+03,3.024490e+02,,8.608000e+01,3.024490e+03
1.401600e+03,3.134490e+02,,8.508000e+01,3.134490e+03
1.402600e+03,3.276010e+02,,8.408000e+01,3.276010e+03
1.403600e+03,3.278570e+02,,8.308000e+01,3.278570e+03
1.404600e+03,3.386230e+02,,8.208000e+01,3.386230e+03
1.405600e+03,3.292490e+02,,8.108000e+01,3.292490e+03
1.406600e+03,2.992790e+02,,8.008000e+01,2.992790e+03
1.407600e+03,3.235940e+02,,7.908000e+01,3.235940e+03
1.408600e+03,3.411280e+02,,7.808000e+01,3.411280e+03
1.409600e+03,3.164990e+02,,7.708000e+01,3.164990e+03
1.410600e+03,3.495160e+02,,7.608000e+01,3.495160e+03
1.411600e+03,3.052440e+02,,7.508000e+01,3.052440e+03
1.412600e+03,3.180120e+02,,7.408000e+01,3.180120e+03
1.413600e+03,3.074200e+02,,7.308000e+01,3.074200e+03
1.414600e+03,3.151420e+02,,7.208000e+01,3.151420e+03
1.415600e+03,3.184880e+02,,7.108000e+01,3.184880e+03
1.416600e+03,3.104960e+02,,7.008000e+01,3.104960e+03
1.417600e+03,3.254330e+02,,6.908000e+01,3.254330e+03
1.418600e+03,2.843800e+02,,6.808000e+01,2.843800e+03
1.419600e+03,3.347450e+02,,6.708000e+01,3.347450e+03
1.420600e+03,2.973140e+02,,6.608000e+01,2.973140e+03
1.421600e+03,3.414600e+02,,6.508000e+01,3.414600e+03
1.422600e+03,3.574680e+02,,6.408000e+01,3.574680e+03
1.423600e+03,3.728320e+02,,6.308000e+01,3.728320e+03
1.424600e+03,3.360600e+02,,6.208000e+01,3.360600e+03
1.425600e+03,3.145770e+02,,6.108000e+01,3.145770e+03
1.426600e+03,3.609330e+02,,6.008000e+01,3.609330e+03
1.427600e+03,3.557790e+02,,5.908000e+01,3.557790e+03
1.428600e+03,3.539030e+02,,5.808000e+01,3.539030e+03
1.429600e+03,3.461410e+02,,5.708000e+01,3.461410e+03
1.430600e+03,3.345070e+02,,5.608000e+01,3.345070e+03
1.431600e+03,3.175610e+02,,5.508000e+01,3.175610e+03
1.432600e+03,3.028060e+02,,5.408000e+01,3.028060e+03
1.433600e+03,3.708770e+02,,5.308000e+01,3.708770e+03
1.434600e+03,3.631590e+02,,5.208000e+01,3.631590e+03
1.435600e+03,3.550990e+02,,5.108000e+01,3.550990e+03
1.436600e+03,4.002040e+02,,5.008000e+01,4.002040e+03
1.437600e+03,3.763730e+02,,4.908000e+01,3.763730e+03
1.438600e+03,3.910620e+02,,4.808000e+01,3.910620e+03
1.439600e+03,3.944690e+02,,4.708000e+01,3.944690e+03
1.440600e+03,3.577770e+02,,4.608000e+01,3.577770e+03
1.441600e+03,3.574870e+02,,4.508000e+01,3.574870e+03
1.442600e+03,3.534400e+02,,4.408000e+01,3.534400e+03
1.443600e+03,3.332860e+02,,4.308000e+01,3.332860e+03
1.444600e+03,3.254910e+02,,4.208000e+01,3.254910e+03
1.445600e+03,2.770730e+02,,4.108000e+01,2.770730e+03
1.446600e+03,2.893240e+02,,4.008000e+01,2.893240e+03
1.447600e+03,2.650900e+02,,3.908000e+01,2.650900e+03
1.448600e+03,2.930540e+02,,3.808000e+01,2.930540e+03
1.449600e+03,2.694310e+02,,3.708000e+01,2.694310e+03
1.450600e+03,2.602230e+02,,3.608000e+01,2.602230e+03
1.451600e+03,2.786270e+02,,3.508000e+01,2.786270e+03
1.452600e+03,2.841450e+02,,3.408000e+01,2.841450e+03
1.453600e+03,3.054190e+02,,3.308000e+01,3.054190e+03
1.454600e+03,3.294990e+02,,3.208000e+01,3.294990e+03
1.455600e+03,3.708510e+02,,3.108000e+01,3.708510e+03
1.456600e+03,4.871710e+02,,3.008000e+01,4.871710e+03
1.457600e+03,5.467830e+02,,2.908000e+01,5.467830e+03
1.458600e+03,7.504520e+02,,2.808000e+01,7.504520e+03
1.459600e+03,9.723550e+02,,2.708000e+01,9.723550e+03
1.460600e+03,1.156570e+03,,2.608000e+01,1.156570e+04
1.461600e+03,1.048880e+03,,2.508000e+01,1.048880e+04
1.462600e+03,6.545090e+02,,2.408000e+01,6.545090e+03
1.463600e+03,3.022910e+02,,2.308000e+01,3.022910e+03
1.464600e+03,1.538780e+02,,2.208000e+01,1.538780e+03
1.465600e+03,1.239140e+02,,2.108000e+01,1.239140e+03
1.466600e+03,1.214690e+02,,2.008000e+01,1.214690e+03
1.467600e+03,1.440910e+02,,1.908000e+01,1.440910e+03
1.468600e+03,1.289470e+02,,1.808000e+01,1.289470e+03
1.469600e+03,1.445710e+02,,1.708000e+01,1.445710e+03
1.470600e+03,2.095530e+02,,1.608000e+01,2.095530e+03
1.471600e+03,2.996940e+02,,1.508000e+01,2.996940e+03
1.472600e+03,2.938750e+02,,1.408000e+01,2.938750e+03
1.473600e+03,2.827740e+02,,1.308000e+01,2.827740e+03
1.474600e+03,2.794420e+02,,1.208000e+01,2.794420e+03
1.475600e+03,2.249820e+02,,1.108000e+01,2.249820e+03
1.476600e+03,2.145190e+02,,1.008000e+01,2.145190e+03
1.477600e+03,2.335800e+02,,9.080000e+00,2.335800e+03
1.478600e+03,2.698110e+02,,8.080000e+00,2.698110e+03
1.479600e+03,2.112760e+02,,7.080000e+00,2.112760e+03
1.480600e+03,1.532390e+02,,6.080000e+00,1.532390e+03
1.481600e+03,7.161940e+01,,5.080000e+00,7.161940e+02
1.482600e+03,1.158520e+01,,4.080000e+00,1.158520e+02
1.483600e+03,8.300980e+00,,3.080000e+00,8.300980e+01
1.484600e+03,5.651760e+00,,2.080000e+00,5.651760e+01
1.485600e+03,1.894220e+00,,1.080000e+00,1.894220e+01
1.486600e+03,9.612390e-01,,8.000000e-02,9.612390e+00
1.487600e+03,0.000000e+00,,-9.200000e-01,0.000000e+00
1.488600e+03,9.617550e-01,,-1.920000e+00,9.617550e+00
1.489600e+03,2.815900e+00,,-2.920000e+00,2.815900e+01
1.490600e+03,9.176970e-01,,-3.920000e+00,9.176970e+00
1.491600e+03,9.589690e-01,,-4.920000e+00,9.589690e+00
1.492600e+03,1.960180e+00,,-5.920000e+00,1.960180e+01
1.493600e+03,5.473800e-01,,-6.920000e+00,5.473800e+00
1.494600e+03,3.734210e-01,,-7.920000e+00,3.734210e+00
1.495600e+03,0.000000e+00,,-8.920000e+00,0.000000e+00
1.496600e+03,9.401240e-01,,-9.920000e+00,9.401240e+00
