"Cycle 0:#010:Si2p Scan"
,Characteristic Energy eV,1.486680e+03,Acquisition Time s,5.000000e-01
Name,,
Position,,
FWHM,,
Area,,
Lineshape,,
K.E.,Counts,,B.E.,CPS
1.376600e+03,2.929360e+02,,1.100800e+02,5.858720e+02
1.376700e+03,3.064450e+02,,1.099800e+02,6.128900e+02
1.376800e+03,2.856640e+02,,1.098800e+02,5.713280e+02
1.376900e+03,3.039690e+02,,1.097800e+02,6.079380e+02
1.377000e+03,3.065200e+02,,1.096800e+02,6.130400e+02
1.377100e+03,3.096250e+02,,1.095800e+02,6.192500e+02
1.377200e+03,3.108990e+02,,1.094800e+02,6.217980e+02
1.377300e+03,3.194230e+02,,1.093800e+02,6.388460e+02
1.377400e+03,3.301260e+02,,1.092800e+02,6.602520e+02
1.377500e+03,3.544660e+02,,1.091800e+02,7.089320e+02
1.377600e+03,3.413860e+02,,1.090800e+02,6.827720e+02
1.377700e+03,3.218450e+02,,1.089800e+02,6.436900e+02
1.377800e+03,3.410300e+02,,1.088800e+02,6.820600e+02
1.377900e+03,3.613370e+02,,1.087800e+02,7.226740e+02
1.378000e+03,3.190770e+02,,1.086800e+02,6.381540e+02
1.378100e+03,3.810550e+02,,1.085800e+02,7.621100e+02
1.378200e+03,3.963780e+02,,1.084800e+02,7.927560e+02
1.378300e+03,4.438320e+02,,1.083800e+02,8.876640e+02
1.378400e+03,4.332340e+02,,1.082800e+02,8.664680e+02
1.378500e+03,4.497470e+02,,1.081800e+02,8.994940e+02
1.378600e+03,5.107760e+02,,1.080800e+02,1.021552e+03
1.378700e+03,5.305560e+02,,1.079800e+02,1.061112e+03
1.378800e+03,5.621440e+02,,1.078800e+02,1.124288e+03
1.378900e+03,6.026860e+02,,1.077800e+02,1.205372e+03
1.379000e+03,6.699760e+02,,1.076800e+02,1.339952e+03
1.379100e+03,7.242200e+02,,1.075800e+02,1.448440e+03
1.379200e+03,7.681250e+02,,1.074800e+02,1.536250e+03
1.379300e+03,8.043750e+02,,1.073800e+02,1.608750e+03
1.379400e+03,8.545900e+02,,1.072800e+02,1.709180e+03
1.379500e+03,9.057960e+02,,1.071800e+02,1.811592e+03
1.379600e+03,9.514030e+02,,1.070800e+02,1.902806e+03
1.379700e+03,1.000630e+03,,1.069800e+02,2.001260e+03
1.379800e+03,1.035330e+03,,1.068800e+02,2.070660e+03
1.379900e+03,1.094920e+03,,1.067800e+02,2.189840e+03
1.380000e+03,1.175510e+03,,1.066800e+02,2.351020e+03
1.380100e+03,1.210230e+03,,1.065800e+02,2.420460e+03
1.380200e+03,1.178590e+03,,1.064800e+02,2.357180e+03
1.380300e+03,1.280190e+03,,1.063800e+02,2.560380e+03
1.380400e+03,1.236430e+03,,1.062800e+02,2.472860e+03
1.380500e+03,1.331130e+03,,1.061800e+02,2.662260e+03
1.380600e+03,1.366690e+03,,1.060800e+02,2.733380e+03
1.380700e+03,1.346230e+03,,1.059800e+02,2.692460e+03
1.380800e+03,1.428140e+03,,1.058800e+02,2.856280e+03
1.380900e+03,1.516120e+03,,1.057800e+02,3.032240e+03
1.381000e+03,1.546030e+03,,1.056800e+02,3.092060e+03
1.381100e+03,1.580810e+03,,1.055800e+02,3.161620e+03
1.381200e+03,1.752580e+03,,1.054800e+02,3.505160e+03
1.381300e+03,1.762800e+03,,1.053800e+02,3.525600e+03
1.381400e+03,1.907860e+03,,1.052800e+02,3.815720e+03
1.381500e+03,2.105970e+03,,1.051800e+02,4.211940e+03
1.381600e+03,2.418460e+03,,1.050800e+02,4.836920e+03
1.381700e+03,2.531000e+03,,1.049800e+02,5.062000e+03
1.381800e+03,2.695620e+03,,1.048800e+02,5.391240e+03
1.381900e+03,2.998150e+03,,1.047800e+02,5.996300e+03
1.382000e+03,3.260800e+03,,1.046800e+02,6.521600e+03
1.382100e+03,3.540650e+03,,1.045800e+02,7.081300e+03
1.382200e+03,3.868750e+03,,1.044800e+02,7.737500e+03
1.382300e+03,4.194670e+03,,1.043800e+02,8.389340e+03
1.382400e+03,4.588950e+03,,1.042800e+02,9.177900e+03
1.382500e+03,4.871440e+03,,1.041800e+02,9.742880e+03
1.382600e+03,5.093060e+03,,1.040800e+02,1.018612e+04
1.382700e+03,5.503330e+03,,1.039800e+02,1.100666e+04
1.382800e+03,5.744650e+03,,1.038800e+02,1.148930e+04
1.382900e+03,5.895160e+03,,1.037800e+02,1.179032e+04
1.383000e+03,5.984810e+03,,1.036800e+02,1.196962e+04
1.383100e+03,6.063650e+03,,1.035800e+02,1.212730e+04
1.383200e+03,6.049370e+03,,1.034800e+02,1.209874e+04
1.383300e+03,5.988530e+03,,1.033800e+02,1.197706e+04
1.383400e+03,5.731140e+03,,1.032800e+02,1.146228e+04
1.383500e+03,5.557760e+03,,1.031800e+02,1.111552e+04
1.383600e+03,5.172290e+03,,1.030800e+02,1.034458e+04
1.383700e+03,4.838940e+03,,1.029800e+02,9.677880e+03
1.383800e+03,4.482170e+03,,1.028800e+02,8.964340e+03
1.383900e+03,4.102280e+03,,1.027800e+02,8.204560e+03
1.384000e+03,3.637620e+03,,1.026800e+02,7.275240e+03
1.384100e+03,3.247280e+03,,1.025800e+02,6.494560e+03
1.384200e+03,2.839810e+03,,1.024800e+02,5.679620e+03
1.384300e+03,2.413660e+03,,1.023800e+02,4.827320e+03
1.384400e+03,2.133410e+03,,1.022800e+02,4.266820e+03
1.384500e+03,1.823500e+03,,1.021800e+02,3.647000e+03
1.384600e+03,1.569880e+03,,1.020800e+02,3.139760e+03
1.384700e+03,1.305290e+03,,1.019800e+02,2.610580e+03
1.384800e+03,1.097830e+03,,1.018800e+02,2.195660e+03
1.384900e+03,9.175010e+02,,1.017800e+02,1.835002e+03
1.385000e+03,8.131770e+02,,1.016800e+02,1.626354e+03
1.385100e+03,7.325320e+02,,1.015800e+02,1.465064e+03
1.385200e+03,6.273530e+02,,1.014800e+02,1.254706e+03
1.385300e+03,5.412880e+02,,1.013800e+02,1.082576e+03
1.385400e+03,4.783380e+02,,1.012800e+02,9.566760e+02
1.385500e+03,4.787720e+02,,1.011800e+02,9.575440e+02
1.385600e+03,4.488260e+02,,1.010800e+02,8.976520e+02
1.385700e+03,4.133990e+02,,1.009800e+02,8.267980e+02
1.385800e+03,3.687300e+02,,1.008800e+02,7.374600e+02
1.385900e+03,3.564760e+02,,1.007800e+02,7.129520e+02
1.386000e+03,3.296690e+02,,1.006800e+02,6.593380e+02
1.386100e+03,3.310620e+02,,1.005800e+02,6.621240e+02
1.386200e+03,3.513780e+02,,1.004800e+02,7.027560e+02
1.386300e+03,2.979820e+02,,1.003800e+02,5.959640e+02
1.386400e+03,2.989180e+02,,1.002800e+02,5.978360e+02
1.386500e+03,3.004240e+02,,1.001800e+02,6.008480e+02
1.386600e+03,3.001790e+02,,1.000800e+02,6.003580e+02
1.386700e+03,3.031520e+02,,9.998000e+01,6.063040e+02
1.386800e+03,2.933170e+02,,9.988000e+01,5.866340e+02
1.386900e+03,3.160890e+02,,9.978000e+01,6.321780e+02
1.387000e+03,2.712310e+02,,9.968000e+01,5.424620e+02
1.387100e+03,2.774370e+02,,9.958000e+01,5.548740e+02
1.387200e+03,2.820120e+02,,9.948000e+01,5.640240e+02
1.387300e+03,3.048450e+02,,9.938000e+01,6.096900e+02
1.387400e+03,3.135060e+02,,9.928000e+01,6.270120e+02
1.387500e+03,2.648760e+02,,9.918000e+01,5.297520e+02
1.387600e+03,2.740660e+02,,9.908000e+01,5.481320e+02
1.387700e+03,2.702080e+02,,9.898000e+01,5.404160e+02
1.387800e+03,2.538280e+02,,9.888000e+01,5.076560e+02
1.387900e+03,2.804810e+02,,9.878000e+01,5.609620e+02
1.388000e+03,2.795710e+02,,9.868000e+01,5.591420e+02
1.388100e+03,2.478080e+02,,9.858000e+01,4.956160e+02
1.388200e+03,2.468360e+02,,9.848000e+01,4.936720e+02
1.388300e+03,2.732540e+02,,9.838000e+01,5.465080e+02
1.388400e+03,2.472060e+02,,9.828000e+01,4.944120e+02
1.388500e+03,2.510650e+02,,9.818000e+01,5.021300e+02
1.388600e+03,2.818630e+02,,9.808000e+01,5.637260e+02
1.388700e+03,2.682650e+02,,9.798000e+01,5.365300e+02
1.388800e+03,2.572550e+02,,9.788000e+01,5.145100e+02
1.388900e+03,2.773110e+02,,9.778000e+01,5.546220e+02
1.389000e+03,2.490870e+02,,9.768000e+01,4.981740e+02
1.389100e+03,2.787930e+02,,9.758000e+01,5.575860e+02
1.389200e+03,2.537450e+02,,9.748000e+01,5.074900e+02
1.389300e+03,2.990580e+02,,9.738000e+01,5.981160e+02
1.389400e+03,2.966620e+02,,9.728000e+01,5.933240e+02
1.389500e+03,2.643720e+02,,9.718000e+01,5.287440e+02
1.389600e+03,2.412720e+02,,9.708000e+01,4.825440e+02
1.389700e+03,2.431640e+02,,9.698000e+01,4.863280e+02
1.389800e+03,2.431560e+02,,9.688000e+01,4.863120e+02
1.389900e+03,2.403890e+02,,9.678000e+01,4.807780e+02
1.390000e+03,2.415930e+02,,9.668000e+01,4.831860e+02
1.390100e+03,2.411020e+02,,9.658000e+01,4.822040e+02
1.390200e+03,2.624210e+02,,9.648000e+01,5.248420e+02
1.390300e+03,2.434790e+02,,9.638000e+01,4.869580e+02
1.390400e+03,2.554550e+02,,9.628000e+01,5.109100e+02
1.390500e+03,2.619280e+02,,9.618000e+01,5.238560e+02
1.390600e+03,2.648640e+02,,9.608000e+01,5.297280e+02
1.390700e+03,2.844840e+02,,9.598000e+01,5.689680e+02
1.390800e+03,2.629040e+02,,9.588000e+01,5.258080e+02
1.390900e+03,2.676160e+02,,9.578000e+01,5.352320e+02
1.391000e+03,2.529940e+02,,9.568000e+01,5.059880e+02
1.391100e+03,2.607040e+02,,9.558000e+01,5.214080e+02
1.391200e+03,2.622560e+02,,9.548000e+01,5.245120e+02
1.391300e+03,2.419730e+02,,9.538000e+01,4.839460e+02
1.391400e+03,2.400710e+02,,9.528000e+01,4.801420e+02
1.391500e+03,2.528810e+02,,9.518000e+01,5.057620e+02
1.391600e+03,2.844910e+02,,9.508000e+01,5.689820e+02
