"Cycle 0:#010:C1s Scan"
,Characteristic Energy eV,1.486680e+03,Acquisition Time s,5.000000e-01
Name,,
Position,,
FWHM,,
Area,,
Lineshape,,
K.E.,Counts,,B.E.,CPS
1.188600e+03,1.376350e+03,,2.980800e+02,2.752700e+03
1.188700e+03,1.415990e+03,,2.979800e+02,2.831980e+03
1.188800e+03,1.374690e+03,,2.978800e+02,2.749380e+03
1.188900e+03,1.382640e+03,,2.977800e+02,2.765280e+03
1.189000e+03,1.409860e+03,,2.976800e+02,2.819720e+03
1.189100e+03,1.456890e+03,,2.975800e+02,2.913780e+03
1.189200e+03,1.393960e+03,,2.974800e+02,2.787920e+03
1.189300e+03,1.402880e+03,,2.973800e+02,2.805760e+03
1.189400e+03,1.399060e+03,,2.972800e+02,2.798120e+03
1.189500e+03,1.405620e+03,,2.971800e+02,2.811240e+03
1.189600e+03,1.444530e+03,,2.970800e+02,2.889060e+03
1.189700e+03,1.369350e+03,,2.969800e+02,2.738700e+03
1.189800e+03,1.356740e+03,,2.968800e+02,2.713480e+03
1.189900e+03,1.372650e+03,,2.967800e+02,2.745300e+03
1.190000e+03,1.353460e+03,,2.966800e+02,2.706920e+03
1.190100e+03,1.365840e+03,,2.965800e+02,2.731680e+03
1.190200e+03,1.361670e+03,,2.964800e+02,2.723340e+03
1.190300e+03,1.331140e+03,,2.963800e+02,2.662280e+03
1.190400e+03,1.280980e+03,,2.962800e+02,2.561960e+03
1.190500e+03,1.293140e+03,,2.961800e+02,2.586280e+03
1.190600e+03,1.339970e+03,,2.960800e+02,2.679940e+03
1.190700e+03,1.357940e+03,,2.959800e+02,2.715880e+03
1.190800e+03,1.295640e+03,,2.958800e+02,2.591280e+03
1.190900e+03,1.317710e+03,,2.957800e+02,2.635420e+03
1.191000e+03,1.361070e+03,,2.956800e+02,2.722140e+03
1.191100e+03,1.360910e+03,,2.955800e+02,2.721820e+03
1.191200e+03,1.345310e+03,,2.954800e+02,2.690620e+03
1.191300e+03,1.283310e+03,,2.953800e+02,2.566620e+03
1.191400e+03,1.378630e+03,,2.952800e+02,2.757260e+03
1.191500e+03,1.344400e+03,,2.951800e+02,2.688800e+03
1.191600e+03,1.322010e+03,,2.950800e+02,2.644020e+03
1.191700e+03,1.324670e+03,,2.949800e+02,2.649340e+03
1.191800e+03,1.306000e+03,,2.948800e+02,2.612000e+03
1.191900e+03,1.269420e+03,,2.947800e+02,2.538840e+03
1.192000e+03,1.283130e+03,,2.946800e+02,2.566260e+03
1.192100e+03,1.323150e+03,,2.945800e+02,2.646300e+03
1.192200e+03,1.362600e+03,,2.944800e+02,2.725200e+03
1.192300e+03,1.344990e+03,,2.943800e+02,2.689980e+03
1.192400e+03,1.293380e+03,,2.942800e+02,2.586760e+03
1.192500e+03,1.284300e+03,,2.941800e+02,2.568600e+03
1.192600e+03,1.248110e+03,,2.940800e+02,2.496220e+03
1.192700e+03,1.266650e+03,,2.939800e+02,2.533300e+03
1.192800e+03,1.227660e+03,,2.938800e+02,2.455320e+03
1.192900e+03,1.298790e+03,,2.937800e+02,2.597580e+03
1.193000e+03,1.303430e+03,,2.936800e+02,2.606860e+03
1.193100e+03,1.230480e+03,,2.935800e+02,2.460960e+03
1.193200e+03,1.250090e+03,,2.934800e+02,2.500180e+03
1.193300e+03,1.295410e+03,,2.933800e+02,2.590820e+03
1.193400e+03,1.278170e+03,,2.932800e+02,2.556340e+03
1.193500e+03,1.295530e+03,,2.931800e+02,2.591060e+03
1.193600e+03,1.260720e+03,,2.930800e+02,2.521440e+03
1.193700e+03,1.288680e+03,,2.929800e+02,2.577360e+03
1.193800e+03,1.324180e+03,,2.928800e+02,2.648360e+03
1.193900e+03,1.247080e+03,,2.927800e+02,2.494160e+03
1.194000e+03,1.343920e+03,,2.926800e+02,2.687840e+03
1.194100e+03,1.279420e+03,,2.925800e+02,2.558840e+03
1.194200e+03,1.304860e+03,,2.924800e+02,2.609720e+03
1.194300e+03,1.306140e+03,,2.923800e+02,2.612280e+03
1.194400e+03,1.272630e+03,,2.922800e+02,2.545260e+03
1.194500e+03,1.320120e+03,,2.921800e+02,2.640240e+03
1.194600e+03,1.250390e+03,,2.920800e+02,2.500780e+03
1.194700e+03,1.280780e+03,,2.919800e+02,2.561560e+03
1.194800e+03,1.218400e+03,,2.918800e+02,2.436800e+03
1.194900e+03,1.292450e+03,,2.917800e+02,2.584900e+03
1.195000e+03,1.291750e+03,,2.916800e+02,2.583500e+03
1.195100e+03,1.264110e+03,,2.915800e+02,2.528220e+03
1.195200e+03,1.339920e+03,,2.914800e+02,2.679840e+03
1.195300e+03,1.332830e+03,,2.913800e+02,2.665660e+03
1.195400e+03,1.378410e+03,,2.912800e+02,2.756820e+03
1.195500e+03,1.364850e+03,,2.911800e+02,2.729700e+03
1.195600e+03,1.380730e+03,,2.910800e+02,2.761460e+03
1.195700e+03,1.370700e+03,,2.909800e+02,2.741400e+03
1.195800e+03,1.370120e+03,,2.908800e+02,2.740240e+03
1.195900e+03,1.381620e+03,,2.907800e+02,2.763240e+03
1.196000e+03,1.405620e+03,,2.906800e+02,2.811240e+03
1.196100e+03,1.482330e+03,,2.905800e+02,2.964660e+03
1.196200e+03,1.437750e+03,,2.904800e+02,2.875500e+03
1.196300e+03,1.448520e+03,,2.903800e+02,2.897040e+03
1.196400e+03,1.416230e+03,,2.902800e+02,2.832460e+03
1.196500e+03,1.453190e+03,,2.901800e+02,2.906380e+03
1.196600e+03,1.387130e+03,,2.900800e+02,2.774260e+03
1.196700e+03,1.506570e+03,,2.899800e+02,3.013140e+03
1.196800e+03,1.534740e+03,,2.898800e+02,3.069480e+03
1.196900e+03,1.548340e+03,,2.897800e+02,3.096680e+03
1.197000e+03,1.512030e+03,,2.896800e+02,3.024060e+03
1.197100e+03,1.593790e+03,,2.895800e+02,3.187580e+03
1.197200e+03,1.609070e+03,,2.894800e+02,3.218140e+03
1.197300e+03,1.654070e+03,,2.893800e+02,3.308140e+03
1.197400e+03,1.636420e+03,,2.892800e+02,3.272840e+03
1.197500e+03,1.653700e+03,,2.891800e+02,3.307400e+03
1.197600e+03,1.739630e+03,,2.890800e+02,3.479260e+03
1.197700e+03,1.745890e+03,,2.889800e+02,3.491780e+03
1.197800e+03,1.752810e+03,,2.888800e+02,3.505620e+03
1.197900e+03,1.826500e+03,,2.887800e+02,3.653000e+03
1.198000e+03,1.890910e+03,,2.886800e+02,3.781820e+03
1.198100e+03,1.870410e+03,,2.885800e+02,3.740820e+03
1.198200e+03,1.995870e+03,,2.884800e+02,3.991740e+03
1.198300e+03,2.004680e+03,,2.883800e+02,4.009360e+03
1.198400e+03,2.039080e+03,,2.882800e+02,4.078160e+03
1.198500e+03,2.060630e+03,,2.881800e+02,4.121260e+03
1.198600e+03,2.183070e+03,,2.880800e+02,4.366140e+03
1.198700e+03,2.184580e+03,,2.879800e+02,4.369160e+03
1.198800e+03,2.298460e+03,,2.878800e+02,4.596920e+03
1.198900e+03,2.357100e+03,,2.877800e+02,4.714200e+03
1.199000e+03,2.447580e+03,,2.876800e+02,4.895160e+03
1.199100e+03,2.524130e+03,,2.875800e+02,5.048260e+03
1.199200e+03,2.565690e+03,,2.874800e+02,5.131380e+03
1.199300e+03,2.618610e+03,,2.873800e+02,5.237220e+03
1.199400e+03,2.782650e+03,,2.872800e+02,5.565300e+03
1.199500e+03,2.813500e+03,,2.871800e+02,5.627000e+03
1.199600e+03,2.819040e+03,,2.870800e+02,5.638080e+03
1.199700e+03,2.913620e+03,,2.869800e+02,5.827240e+03
1.199800e+03,3.045710e+03,,2.868800e+02,6.091420e+03
1.199900e+03,3.103180e+03,,2.867800e+02,6.206360e+03
1.200000e+03,3.153290e+03,,2.866800e+02,6.306580e+03
1.200100e+03,3.093960e+03,,2.865800e+02,6.187920e+03
1.200200e+03,3.093160e+03,,2.864800e+02,6.186320e+03
1.200300e+03,3.140970e+03,,2.863800e+02,6.281940e+03
1.200400e+03,3.152470e+03,,2.862800e+02,6.304940e+03
1.200500e+03,3.164580e+03,,2.861800e+02,6.329160e+03
1.200600e+03,3.170290e+03,,2.860800e+02,6.340580e+03
1.200700e+03,3.222700e+03,,2.859800e+02,6.445400e+03
1.200800e+03,3.205660e+03,,2.858800e+02,6.411320e+03
1.200900e+03,3.182960e+03,,2.857800e+02,6.365920e+03
1.201000e+03,3.279620e+03,,2.856800e+02,6.559240e+03
1.201100e+03,3.281080e+03,,2.855800e+02,6.562160e+03
1.201200e+03,3.264740e+03,,2.854800e+02,6.529480e+03
1.201300e+03,3.296360e+03,,2.853800e+02,6.592720e+03
1.201400e+03,3.316380e+03,,2.852800e+02,6.632760e+03
1.201500e+03,3.389540e+03,,2.851800e+02,6.779080e+03
1.201600e+03,3.359480e+03,,2.850800e+02,6.718960e+03
1.201700e+03,3.356030e+03,,2.849800e+02,6.712060e+03
1.201800e+03,3.290470e+03,,2.848800e+02,6.580940e+03
1.201900e+03,3.239160e+03,,2.847800e+02,6.478320e+03
1.202000e+03,3.291060e+03,,2.846800e+02,6.582120e+03
1.202100e+03,3.159870e+03,,2.845800e+02,6.319740e+03
1.202200e+03,3.110470e+03,,2.844800e+02,6.220940e+03
1.202300e+03,2.874440e+03,,2.843800e+02,5.748880e+03
1.202400e+03,2.748740e+03,,2.842800e+02,5.497480e+03
1.202500e+03,2.694430e+03,,2.841800e+02,5.388860e+03
1.202600e+03,2.467530e+03,,2.840800e+02,4.935060e+03
1.202700e+03,2.361420e+03,,2.839800e+02,4.722840e+03
1.202800e+03,2.171080e+03,,2.838800e+02,4.342160e+03
1.202900e+03,1.974350e+03,,2.837800e+02,3.948700e+03
1.203000e+03,1.866310e+03,,2.836800e+02,3.732620e+03
1.203100e+03,1.767860e+03,,2.835800e+02,3.535720e+03
1.203200e+03,1.713390e+03,,2.834800e+02,3.426780e+03
1.203300e+03,1.589950e+03,,2.833800e+02,3.179900e+03
1.203400e+03,1.504460e+03,,2.832800e+02,3.008920e+03
1.203500e+03,1.428050e+03,,2.831800e+02,2.856100e+03
1.203600e+03,1.426950e+03,,2.830800e+02,2.853900e+03
1.203700e+03,1.378600e+03,,2.829800e+02,2.757200e+03
1.203800e+03,1.341460e+03,,2.828800e+02,2.682920e+03
1.203900e+03,1.306830e+03,,2.827800e+02,2.613660e+03
1.204000e+03,1.324520e+03,,2.826800e+02,2.649040e+03
1.204100e+03,1.268550e+03,,2.825800e+02,2.537100e+03
1.204200e+03,1.292140e+03,,2.824800e+02,2.584280e+03
1.204300e+03,1.299190e+03,,2.823800e+02,2.598380e+03
1.204400e+03,1.297700e+03,,2.822800e+02,2.595400e+03
1.204500e+03,1.264540e+03,,2.821800e+02,2.529080e+03
1.204600e+03,1.227460e+03,,2.820800e+02,2.454920e+03
1.204700e+03,1.227770e+03,,2.819800e+02,2.455540e+03
1.204800e+03,1.280130e+03,,2.818800e+02,2.560260e+03
1.204900e+03,1.159940e+03,,2.817800e+02,2.319880e+03
1.205000e+03,1.198380e+03,,2.816800e+02,2.396760e+03
1.205100e+03,1.234160e+03,,2.815800e+02,2.468320e+03
1.205200e+03,1.272750e+03,,2.814800e+02,2.545500e+03
1.205300e+03,1.251410e+03,,2.813800e+02,2.502820e+03
1.205400e+03,1.227530e+03,,2.812800e+02,2.455060e+03
1.205500e+03,1.210680e+03,,2.811800e+02,2.421360e+03
1.205600e+03,1.243470e+03,,2.810800e+02,2.486940e+03
1.205700e+03,1.224830e+03,,2.809800e+02,2.449660e+03
1.205800e+03,1.231840e+03,,2.808800e+02,2.463680e+03
1.205900e+03,1.231900e+03,,2.807800e+02,2.463800e+03
1.206000e+03,1.211610e+03,,2.806800e+02,2.423220e+03
1.206100e+03,1.172180e+03,,2.805800e+02,2.344360e+03
1.206200e+03,1.274470e+03,,2.804800e+02,2.548940e+03
1.206300e+03,1.287800e+03,,2.803800e+02,2.575600e+03
1.206400e+03,1.216280e+03,,2.802800e+02,2.432560e+03
1.206500e+03,1.172840e+03,,2.801800e+02,2.345680e+03
1.206600e+03,1.234800e+03,,2.800800e+02,2.469600e+03
1.206700e+03,1.247480e+03,,2.799800e+02,2.494960e+03
1.206800e+03,1.244700e+03,,2.798800e+02,2.489400e+03
1.206900e+03,1.236950e+03,,2.797800e+02,2.473900e+03
1.207000e+03,1.251570e+03,,2.796800e+02,2.503140e+03
1.207100e+03,1.171540e+03,,2.795800e+02,2.343080e+03
1.207200e+03,1.235310e+03,,2.794800e+02,2.470620e+03
1.207300e+03,1.177650e+03,,2.793800e+02,2.355300e+03
1.207400e+03,1.175830e+03,,2.792800e+02,2.351660e+03
1.207500e+03,1.180590e+03,,2.791800e+02,2.361180e+03
1.207600e+03,1.245350e+03,,2.790800e+02,2.490700e+03
